0.788838612,0.224736048,0.67571644,0.43438914,0.731523379,1,0.56561086,0.7586727,0.197586727,0.672699849,0.428355958,0.44494721,0.677224736,0.235294118,0.793363499,0.232277526,0.684766214,0.450980392,0.44494721,0.707390649,0.254901961,0.828054299,0.294117647,0.739064857,0.535444947,0.518853695,0.802413273,0.319758673,0.867269985,0.292609351,0.680241327,0.461538462,0.390648567,0.680241327,0.179487179,0.74811463,0.20361991,0.595776772,0.429864253,0.345399698,0.669683258,0.165912519,0.742081448,0.224736048,0.583710407,0.457013575,0.334841629,0.69984917,0.173453997,0.740573152,0.266968326,0.56561086,0.520361991,0.315233786,0.736048265,0.19306184,0.754147813,0.301659125,0.570135747,0.55505279,0.330316742,0.763197587,0.212669683,0.767722474,0.327300151,0.568627451,0.580693816,0.346907994,0.800904977,0.257918552,0.825037707,0.414781297,0.628959276,0.63800905,0.349924585,0.794871795,0.229260935,0.77224736,0.340874811,0.568627451,0.570135747,0.523378582,0.998491704,0.659125189,0.760180995,0.307692308,0.562594268,0.580693816,0.32428356,0.775263952,0.206636501,0.763197587,0.336349925,0.562594268,0.58974359,0.319758673,0.797888386,0.230769231,0.800904977,0.383107089,0.616892911,0.668174962,0.393665158,0.880844646,0.298642534,0.840120664,0.399698341,0.57918552,0.606334842,0.277526395,0.763197587,0.156862745,0.713423831,0.292609351,0.485671192,0.556561086,0.232277526,0.745098039,0.14479638,0.751131222,0.229260935,0.574660633,0.479638009,0.310708899,0.719457014,0.155354449,0.760180995,0.2413273,0.580693816,0.497737557,0.315233786,0.740573152,0.167420814,0.77224736,0.26546003,0.588235294,0.529411765,0.325791855,0.763197587,0.184012066,0.788838612,0.295625943,0.595776772,0.559577677,0.336349925,0.808446456,0.226244344,0.838612368,0.377073906,0.66214178,0.63800905,0.365007541,0.809954751,0.205128205,0.793363499,0.319758673,0.573152338,0.568627451,0.310708899,0.996983409,0.73453997,0.972850679,0.357466063,0.544494721,0.586726998,0.306184012,0.799396682,0.191553544,0.77224736,0.328808446,0.542986425,0.601809955,0.286576169,0.799396682,0.202111614,0.778280543,0.375565611,0.570135747,0.669683258,0.345399698,0.880844646,0.283559578,0.829562594,0.428355958,0.561085973,0.645550528,0.260935143,0.779788839,0.161387632,0.701357466,0.319758673,0.455505279,0.580693816,0.20361991,0.754147813,0.14479638,0.739064857,0.242835596,0.546003017,0.50678733,0.282051282,0.736048265,0.153846154,0.749622926,0.268476621,0.546003017,0.535444947,0.285067873,0.760180995,0.173453997,0.7586727,0.301659125,0.559577677,0.567119155,0.298642534,0.790346908,0.184012066,0.790346908,0.316742081,0.568627451,0.594268477,0.303167421,0.809954751,0.209653092,0.811463047,0.374057315,0.624434389,0.680241327,0.354449472,0.856711916,0.208144796,0.787330317,0.336349925,0.55505279,0.607843137,0.260935143,0.817496229,0.43438914,0.996983409,0.625942685,0.509803922,0.595776772,0.244343891,0.815987934,0.180995475,0.761689291,0.345399698,0.518853695,0.62745098,0.256410256,0.828054299,0.191553544,0.779788839,0.383107089,0.549019608,0.698340875,0.310708899,0.90346908,0.274509804,0.847662142,0.464555053,0.571644042,0.71040724,0.26546003,0.832579186,0.167420814,0.717948718,0.343891403,0.441930618,0.622926094,0.182503771,0.784313725,0.135746606,0.751131222,0.248868778,0.526395173,0.53092006,0.247360483,0.760180995,0.123680241,0.785822021,0.190045249,0.619909502,0.443438914,0.345399698,0.722473605,0.150829563,0.800904977,0.214177979,0.631975867,0.476621418,0.351432881,0.746606335,0.16892911,0.815987934,0.242835596,0.645550528,0.533936652,0.383107089,0.819004525,0.247360483,0.897435897,0.321266968,0.674208145,0.544494721,0.355957768,0.784313725,0.176470588,0.817496229,0.244343891,0.642533937,0.865761689,0.844645551,0.907993967,0.156862745,0.785822021,0.257918552,0.604826546,0.544494721,0.333333333,0.740573152,0.22775264,0.711915535,0.358974359,0.521870287,0.585218703,0.325791855,0.751131222,0.2760181,0.728506787,0.44494721,0.562594268,0.668174962,0.387631976,0.788838612,0.331825038,0.683257919,0.429864253,0.453996983,0.583710407,0.260935143,0.674208145,0.236802413,0.597285068,0.387631976,0.413273002,0.580693816,0.256410256,0.683257919,0.256410256,0.606334842,0.413273002,0.423831071,0.607843137,0.274509804,0.698340875,0.279034691,0.610859729,0.438914027,0.426847662,0.622926094,0.279034691,0.707390649,0.292609351,0.616892911,0.45852187,0.43438914,0.647058824,0.294117647,0.725490196,0.331825038,0.650075415,0.523378582,0.499245852,0.740573152,0.369532428,0.778280543,0.357466063,0.631975867,0.503770739,0.435897436,0.672699849,0.286576169,0.720965309,0.523378582,0.992458522,0.844645551,0.452488688,0.678733032,0.298642534,0.740573152,0.345399698,0.609351433,0.511312217,0.416289593,0.681749623,0.292609351,0.7239819,0.340874811,0.607843137,0.53092006,0.437405732,0.722473605,0.340874811,0.790346908,0.416289593,0.684766214,0.595776772,0.484162896,0.737556561,0.301659125,0.751131222,0.279034691,0.604826546,0.450980392,0.384615385,0.653092006,0.211161388,0.736048265,0.220211161,0.625942685,0.414781297,0.398190045,0.684766214,0.188536953,0.819004525,0.19306184,0.695324284,0.425339367,0.426847662,0.71040724,0.194570136,0.829562594,0.20361991,0.687782805,0.435897436,0.413273002,0.719457014,0.194570136,0.828054299,0.21719457,0.687782805,0.457013575,0.414781297,0.733031674,0.202111614,0.847662142,0.25188537,0.714932127,0.523378582,0.470588235,0.799396682,0.232277526,0.843137255,0.235294118,0.665158371,0.467571644,0.377073906,0.722473605,0.164404223,0.990950226,0.708898944,0.945701357,0.514328808,0.334841629,0.719457014,0.176470588,0.800904977,0.236802413,0.625942685,0.488687783,0.346907994,0.73453997,0.185520362,0.785822021,0.279034691,0.61387632,0.549019608,0.381598793,0.802413273,0.266968326,0.862745098,0.371040724,0.684766214,0.606334842,0.390648567,0.784313725,0.194570136,0.755656109,0.25188537,0.538461538,0.490196078,0.268476621,0.701357466,0.135746606,0.73453997,0.182503771,0.600301659,0.405731523,0.355957768,0.656108597,0.165912519,0.752639517,0.197586727,0.616892911,0.426847662,0.365007541,0.68627451,0.188536953,0.766214178,0.232277526,0.621417798,0.475113122,0.369532428,0.717948718,0.208144796,0.77224736,0.282051282,0.594268477,0.533936652,0.351432881,0.755656109,0.220211161,0.784313725,0.340874811,0.621417798,0.612368024,0.417797888,0.844645551,0.288084465,0.815987934,0.346907994,0.591251885,0.573152338,0.342383107,0.766214178,0.196078431,0.793363499,0.671191554,0.987933635,0.752639517,0.303167421,0.752639517,0.20361991,0.764705882,0.330316742,0.556561086,0.571644042,0.316742081,0.766214178,0.212669683,0.7586727,0.342383107,0.564102564,0.609351433,0.349924585,0.820512821,0.277526395,0.829562594,0.437405732,0.636500754,0.680241327,0.381598793,0.825037707,0.236802413,0.74811463,0.328808446,0.50678733,0.552036199,0.254901961,0.731523379,0.162895928,0.69984917,0.301659125,0.488687783,0.55505279,0.253393665,0.737556561,0.170437406,0.704374057,0.31372549,0.491704374,0.570135747,0.259426848,0.751131222,0.184012066,0.713423831,0.328808446,0.499245852,0.585218703,0.266968326,0.764705882,0.19306184,0.725490196,0.34841629,0.508295626,0.601809955,0.277526395,0.776772247,0.211161388,0.752639517,0.390648567,0.559577677,0.683257919,0.358974359,0.849170437,0.262443439,0.749622926,0.387631976,0.509803922,0.62745098,0.274509804,0.769230769,0.208144796,0.971342383,0.846153846,0.745098039,0.642533937,0.242835596,0.760180995,0.220211161,0.711915535,0.384615385,0.4826546,0.628959276,0.259426848,0.778280543,0.226244344,0.711915535,0.416289593,0.505279035,0.677224736,0.310708899,0.846153846,0.309200603,0.784313725,0.505279035,0.559577677,0.730015083,0.312217195,0.812971342,0.236802413,0.681749623,0.384615385,0.426847662,0.61387632,0.209653092,0.737556561,0.188536953,0.642533937,0.375565611,0.411764706,0.616892911,0.209653092,0.743589744,0.191553544,0.647058824,0.390648567,0.413273002,0.634992459,00.218702866,0.754147813,0.214177979,0.659125189,0.414781297,0.422322775,0.657616893,0.230769231,0.775263952,0.235294118,0.669683258,0.453996983,0.464555053,0.714932127,0.303167421,0.853695324,0.321266968,0.716440422,0.478129713,0.447963801,0.696832579,0.244343891,0.787330317,0.250377074,0.642533937,0.549019608,0.862745098,0.996983409,0.339366516,0.778280543,0.239819005,0.659125189,0.478129713,0.426847662,0.705882353,0.238310709,0.788838612,0.262443439,0.657616893,0.484162896,0.42081448,0.730015083,0.266968326,0.83107089,0.330316742,0.720965309,0.571644042,0.502262443,0.802413273,0.310708899,0.838612368,0.306184012,0.648567119,0.473604827,0.37254902,0.674208145,0.180995475,0.73453997,0.221719457,0.588235294,0.443438914,0.34841629,0.677224736,0.188536953,0.743589744,0.238310709,0.594268477,0.460030166,0.352941176,0.690799397,0.19306184,0.752639517,0.250377074,0.601809955,0.481146305,0.357466063,0.71040724,0.205128205,0.764705882,0.269984917,0.606334842,0.500754148,0.369532428,0.725490196,0.218702866,0.775263952,0.306184012,0.642533937,0.561085973,0.437405732,0.809954751,0.297134238,0.823529412,0.321266968,0.621417798,0.53092006,0.366515837,0.731523379,0.211161388,0.752639517,0.449472097,0.989441931,0.901960784,0.381598793,0.726998492,0.212669683,0.77224736,0.309200603,0.594268477,0.529411765,0.354449472,0.737556561,0.221719457,0.767722474,0.310708899,0.604826546,0.559577677,0.384615385,0.787330317,0.283559578,0.838612368,0.402714932,0.678733032,0.644042232,0.43438914,0.808446456,0.257918552,0.769230769,0.298642534,0.553544495,0.50678733,0.30015083,0.701357466,0.170437406,0.71040724,0.263951735,0.529411765,0.503770739,0.295625943,0.711915535,0.177978884,0.717948718,0.277526395,0.533936652,0.520361991,0.301659125,0.722473605,0.190045249,0.726998492,0.297134238,0.542986425,0.539969834,0.315233786,0.740573152,0.20361991,0.742081448,0.316742081,0.558069382,0.564102564,0.32428356,0.761689291,0.223227753,0.760180995,0.345399698,0.574660633,0.601809955,0.365007541,0.811463047,0.294117647,0.83107089,0.426847662,0.612368024,0.615384615,0.340874811,0.77224736,0.221719457,0.746606335,0.339366516,0.527903469,0.678733032,0.766214178,1,0.371040724,0.7239819,0.336349925,0.547511312,0.594268477,0.310708899,0.764705882,0.212669683,0.736048265,0.343891403,0.532428356,0.591251885,0.315233786,0.781297134,0.242835596,0.769230769,0.404223228,0.597285068,0.67571644,0.39668175,0.856711916,0.309200603,0.797888386,0.399698341,0.538461538,0.588235294,0.269984917,0.733031674,0.170437406,0.681749623,0.306184012,0.46907994,0.547511312,0.2413273,0.720965309,0.167420814,0.683257919,0.318250377,0.472096531,0.559577677,0.250377074,0.728506787,0.174962293,0.689291101,0.336349925,0.478129713,0.57918552,0.262443439,0.74811463,0.202111614,0.707390649,0.36199095,0.500754148,0.609351433,0.280542986,0.77224736,0.224736048,0.720965309,0.381598793,0.508295626,0.628959276,0.292609351,0.785822021,0.239819005,0.740573152,0.426847662,0.54147813,0.693815988,0.363499246,0.856711916,0.294117647,0.751131222,0.413273002,0.509803922,0.639517345,0.285067873,0.778280543,0.212669683,0.788838612,0.809954751,0.954751131,0.739064857,0.248868778,0.766214178,0.230769231,0.71040724,0.392156863,0.479638009,0.628959276,0.263951735,0.77224736,0.22775264,0.702865762,0.404223228,0.487179487,0.657616893,0.297134238,0.822021116,0.291101056,0.770739065,0.485671192,0.558069382,0.720965309,0.325791855,0.808446456,0.244343891,0.681749623,0.380090498,0.431372549,0.598793363,0.209653092,0.725490196,0.179487179,0.641025641,0.355957768,0.416289593,0.60331825,0.209653092,0.728506787,0.187028658,0.644042232,0.371040724,0.42081448,0.612368024,0.218702866,0.742081448,0.202111614,0.653092006,0.384615385,0.43438914,0.633484163,0.235294118,0.7586727,0.224736048,0.67571644,0.414781297,0.453996983,0.660633484,0.259426848,0.787330317,0.253393665,0.69984917,0.466063348,0.49321267,0.730015083,0.331825038,0.864253394,0.315233786,0.725490196,0.466063348,0.466063348,0.68627451,0.256410256,0.787330317,0.229260935,0.687782805,0.742081448,0.915535445,0.83107089,0.25188537,0.760180995,0.232277526,0.678733032,0.446455505,0.438914027,0.678733032,0.247360483,0.784313725,0.257918552,0.681749623,0.463046757,0.45852187,0.71040724,0.286576169,0.832579186,0.319758673,0.739064857,0.535444947,0.526395173,0.773755656,0.322775264,0.828054299,0.283559578,0.665158371,0.443438914,0.407239819,0.653092006,0.206636501,0.742081448,0.214177979,0.616892911,0.419306184,0.38612368,0.65158371,0.202111614,0.743589744,0.215686275,0.616892911,0.423831071,0.387631976,0.657616893,0.206636501,0.745098039,0.229260935,0.622926094,0.435897436,0.393665158,0.668174962,0.214177979,0.755656109,0.242835596,0.633484163,0.455505279,0.407239819,0.702865762,0.257918552,0.803921569,0.318250377,0.707390649,0.54147813,0.45852187,0.725490196,0.2413273,0.776772247,0.260935143,0.636500754,0.467571644,0.383107089,0.819004525,0.680241327,0.996983409,0.360482655,0.612368024,0.453996983,0.399698341,0.705882353,0.229260935,0.775263952,0.268476621,0.641025641,0.485671192,0.407239819,0.720965309,0.250377074,0.799396682,0.309200603,0.678733032,0.552036199,0.472096531,0.790346908,0.328808446,0.864253394,0.355957768,0.68627451,0.526395173,0.404223228,0.69984917,0.202111614,0.733031674,0.230769231,0.582202112,0.443438914,0.340874811,0.66214178,0.177978884,0.726998492,0.232277526,0.582202112,0.457013575,0.346907994,0.678733032,0.19306184,0.737556561,0.250377074,0.591251885,0.470588235,0.358974359,0.693815988,0.205128205,0.751131222,0.26546003,0.595776772,0.488687783,0.369532428,0.713423831,0.220211161,0.766214178,0.282051282,0.615384615,0.524886878,0.41025641,0.764705882,0.288084465,0.841628959,0.358974359,0.656108597,0.535444947,0.383107089,0.726998492,0.224736048,0.7586727,0.274509804,0.588235294,0.678733032,0.867269985,0.998491704,0.260935143,0.74811463,0.285067873,0.606334842,0.521870287,0.366515837,0.722473605,0.221719457,0.757164404,0.291101056,0.601809955,0.521870287,0.380090498,0.74811463,0.256410256,0.805429864,0.360482655,0.668174962,0.609351433,0.45852187,0.820512821,0.304675716,0.817496229,0.333333333,0.598793363,0.508295626,0.327300151,0.687782805,0.171945701,0.71040724,0.244343891,0.536953243,0.473604827,0.304675716,0.683257919,0.171945701,0.716440422,0.257918552,0.547511312,0.49321267,0.319758673,0.69984917,0.188536953,0.730015083,0.280542986,0.562594268,0.509803922,0.336349925,0.719457014,0.209653092,0.74811463,0.298642534,0.57918552,0.533936652,0.34841629,0.737556561,0.224736048,0.7586727,0.318250377,0.591251885,0.552036199,0.36199095,0.766214178,0.262443439,0.80693816,0.38612368,0.660633484,0.622926094,0.405731523,0.775263952,0.244343891,0.764705882,0.32428356,0.582202112,0.538461538,0.328808446,0.889894419,0.698340875,0.995475113,0.393665158,0.549019608,0.536953243,0.345399698,0.743589744,0.218702866,0.74811463,0.312217195,0.567119155,0.542986425,0.340874811,0.74811463,0.232277526,0.767722474,0.345399698,0.607843137,0.606334842,0.41025641,0.826546003,0.318250377,0.847662142,0.416289593,0.634992459,0.600301659,0.354449472,0.739064857,0.200603318,0.717948718,0.283559578,0.523378582,0.511312217,0.28959276,0.704374057,0.177978884,0.708898944,0.285067873,0.524886878,0.523378582,0.295625943,0.713423831,0.185520362,0.714932127,0.292609351,0.526395173,0.527903469,0.301659125,0.722473605,0.197586727,0.725490196,0.307692308,0.542986425,0.552036199,0.316742081,0.740573152,0.206636501,0.739064857,0.325791855,0.553544495,0.56561086,0.32428356,0.755656109,0.224736048,0.754147813,0.34841629,0.586726998,0.607843137,0.392156863,0.835595777,0.307692308,0.80693816,0.378582202,0.580693816,0.591251885,0.342383107,0.769230769,0.22775264,0.742081448,0.45852187,0.97586727,0.97586727,0.408748115,0.767722474,0.21719457,0.7586727,0.34841629,0.561085973,0.576168929,0.325791855,0.760180995,0.221719457,0.751131222,0.342383107,0.562594268,00.343373494,0.790662651,0.266566265,0.805722892,0.411144578,0.640060241,0.655120482,0.406626506,0.811746988,0.254518072,0.760542169,0.320783133,0.53313253,0.524096386,0.281626506,0.707831325,0.167168675,0.707831325,0.268072289,0.521084337,0.510542169,0.28313253,0.713855422,0.171686747,0.713855422,0.274096386,0.527108434,0.521084337,0.293674699,0.718373494,0.176204819,0.730421687,0.278614458,0.540662651,0.522590361,0.307228916,0.733433735,0.186746988,0.745481928,0.293674699,0.56626506,0.542168675,0.326807229,0.762048193,0.228915663,0.795180723,0.365963855,0.65060241,0.635542169,0.409638554,0.81626506,0.240963855,0.786144578,0.328313253,0.585843373,0.557228916,0.323795181,0.753012048,0.424698795,0.998493976,0.626506024,0.567771084,0.53313253,0.307228916,0.760542169,0.206325301,0.774096386,0.299698795,0.585843373,0.551204819,0.337349398,0.774096386,0.219879518,0.798192771,0.335843373,0.629518072,0.605421687,0.402108434,0.843373494,0.295180723,0.870481928,0.40060241,0.665662651,0.614457831,0.370481928,0.77560241,0.189759036,0.753012048,0.263554217,0.546686747,0.506024096,0.284638554,0.719879518,0.144578313,0.756024096,0.186746988,0.620481928,0.405120482,0.36746988,0.65813253,0.173192771,0.759036145,0.197289157,0.631024096,0.417168675,0.38253012,0.674698795,0.189759036,0.77560241,0.210843373,0.644578313,0.43373494,0.396084337,0.69126506,0.204819277,0.790662651,0.230421687,0.664156627,0.462349398,0.438253012,0.734939759,0.266566265,0.864457831,0.31626506,0.727409639,0.501506024,0.430722892,0.71686747,0.21686747,0.802710843,0.233433735,0.646084337,0.478915663,0.748493976,0.998493976,0.478915663,0.769578313,0.209337349,0.653614458,0.459337349,0.403614458,0.704819277,0.206325301,0.799698795,0.237951807,0.664156627,0.46686747,0.417168675,0.730421687,0.239457831,0.838855422,0.299698795,0.731927711,0.555722892,0.509036145,0.819277108,0.320783133,0.881024096,0.320783133,0.679216867,0.489457831,0.387048193,0.694277108,0.177710843,0.746987952,0.210843373,0.594879518,0.427710843,0.34186747,0.668674699,0.165662651,0.743975904,0.207831325,0.593373494,0.44126506,0.344879518,0.679216867,0.176204819,0.75,0.230421687,0.600903614,0.460843373,0.362951807,0.695783133,0.194277108,0.765060241,0.248493976,0.620481928,0.477409639,0.376506024,0.718373494,0.209337349,0.787650602,0.265060241,0.635542169,0.49246988,0.411144578,0.756024096,0.263554217,0.855421687,0.347891566,0.709337349,0.543674699,0.414156627,0.737951807,0.221385542,0.792168675,0.259036145,0.629518072,0.47439759,0.569277108,1,0.656626506,0.780120482,0.228915663,0.623493976,0.486445783,0.387048193,0.718373494,0.201807229,0.78313253,0.253012048,0.63253012,0.486445783,0.390060241,0.736445783,0.233433735,0.820783133,0.307228916,0.695783133,0.564759036,0.471385542,0.819277108,0.311746988,0.875,0.332831325,0.677710843,0.50753012,0.376506024,0.706325301,0.179216867,0.753012048,0.221385542,0.590361446,0.444277108,0.335843373,0.685240964,0.171686747,0.75,0.228915663,0.590361446,0.46686747,0.34186747,0.697289157,0.179216867,0.751506024,0.240963855,0.593373494,0.477409639,0.350903614,0.710843373,0.192771084,0.763554217,0.263554217,0.600903614,0.501506024,0.362951807,0.728915663,0.210843373,0.774096386,0.287650602,0.606927711,0.516566265,0.36746988,0.754518072,0.245481928,0.813253012,0.347891566,0.677710843,0.590361446,0.414156627,0.763554217,0.227409639,0.789156627,0.277108434,0.621987952,0.498493976,0.358433735,0.864457831,0.680722892,0.993975904,0.359939759,0.606927711,0.483433735,0.375,0.733433735,0.203313253,0.78313253,0.262048193,0.620481928,0.493975904,0.371987952,0.733433735,0.212349398,0.799698795,0.295180723,0.661144578,0.555722892,0.442771084,0.811746988,0.299698795,0.870481928,0.352409639,0.685240964,0.542168675,0.387048193,0.728915663,0.179216867,0.753012048,0.22439759,0.576807229,0.450301205,0.325301205,0.689759036,0.15813253,0.743975904,0.215361446,0.578313253,0.460843373,0.334337349,0.703313253,0.167168675,0.75753012,0.231927711,0.593373494,0.469879518,0.340361446,0.706325301,0.176204819,0.760542169,0.245481928,0.605421687,0.487951807,0.355421687,0.728915663,0.194277108,0.78313253,0.263554217,0.63253012,0.528614458,0.403614458,0.793674699,0.280120482,0.86746988,0.334337349,0.665662651,0.527108434,0.381024096,0.748493976,0.209337349,0.790662651,0.253012048,0.668674699,0.876506024,0.864457831,0.843373494,0.198795181,0.769578313,0.260542169,0.631024096,0.513554217,0.36746988,0.74246988,0.210843373,0.795180723,0.281626506,0.631024096,0.521084337,0.388554217,0.774096386,0.246987952,0.843373494,0.346385542,0.703313253,0.603915663,0.462349398,0.829819277,0.278614458,0.835843373,0.299698795,0.621987952,0.493975904,0.335843373,0.704819277,0.161144578,0.746987952,0.222891566,0.573795181,0.462349398,0.320783133,0.698795181,0.15813253,0.746987952,0.227409639,0.576807229,0.469879518,0.328313253,0.709337349,0.167168675,0.753012048,0.239457831,0.588855422,0.481927711,0.335843373,0.718373494,0.180722892,0.768072289,0.254518072,0.603915663,0.503012048,0.355421687,0.737951807,0.198795181,0.790662651,0.286144578,0.643072289,0.546686747,0.417168675,0.811746988,0.277108434,0.835843373,0.304216867,0.628012048,0.518072289,0.361445783,0.739457831,0.19126506,0.763554217,0.359939759,0.983433735,0.953313253,0.454819277,0.728915663,0.185240964,0.789156627,0.280120482,0.614457831,0.510542169,0.358433735,0.740963855,0.198795181,0.787650602,0.284638554,0.618975904,0.534638554,0.384036145,0.781626506,0.265060241,0.832831325,0.385542169,0.674698795,0.635542169,0.432228916,0.819277108,0.259036145,0.787650602,0.299698795,0.560240964,0.506024096,0.296686747,0.701807229,0.15813253,0.712349398,0.256024096,0.528614458,0.493975904,0.286144578,0.701807229,0.165662651,0.713855422,0.265060241,0.528614458,0.512048193,0.296686747,0.715361446,0.182228916,0.71686747,0.296686747,0.53313253,0.534638554,0.304216867,0.727409639,0.200301205,0.727409639,0.31626506,0.548192771,0.555722892,0.320783133,0.751506024,0.221385542,0.751506024,0.335843373,0.576807229,0.593373494,0.362951807,0.811746988,0.295180723,0.822289157,0.385542169,0.59186747,0.581325301,0.332831325,0.760542169,0.21686747,0.743975904,0.310240964,0.65813253,0.986445783,0.84186747,0.80873494,0.189759036,0.740963855,0.329819277,0.563253012,0.561746988,0.319277108,0.751506024,0.210843373,0.745481928,0.326807229,0.561746988,0.575301205,0.340361446,0.781626506,0.254518072,0.799698795,0.397590361,0.640060241,0.65813253,0.418674699,0.838855422,0.284638554,0.789156627,0.347891566,0.546686747,0.540662651,0.289156627,0.715361446,0.164156627,0.700301205,0.27560241,0.506024096,0.513554217,0.271084337,0.707831325,0.162650602,0.710843373,0.281626506,0.513554217,0.524096386,0.281626506,0.721385542,0.176204819,0.71686747,0.298192771,0.530120482,0.542168675,0.298192771,0.74246988,0.198795181,0.737951807,0.317771084,0.546686747,0.560240964,0.314759036,0.756024096,0.212349398,0.751506024,0.337349398,0.564759036,0.581325301,0.332831325,0.774096386,0.243975904,0.795180723,0.381024096,0.625,0.655120482,0.399096386,0.820783133,0.251506024,0.769578313,0.34186747,0.561746988,0.575301205,0.317771084,0.746987952,0.332831325,0.996987952,0.778614458,0.593373494,0.570783133,0.307228916,0.766566265,0.219879518,0.748493976,0.325301205,0.545180723,0.561746988,0.307228916,0.751506024,0.209337349,0.748493976,0.338855422,0.567771084,0.602409639,0.362951807,0.819277108,0.290662651,0.826807229,0.424698795,0.63253012,0.638554217,0.353915663,0.774096386,0.201807229,0.719879518,0.292168675,0.50753012,0.524096386,0.262048193,0.704819277,0.156626506,0.695783133,0.277108434,0.495481928,0.521084337,0.262048193,0.712349398,0.153614458,0.703313253,0.280120482,0.50753012,0.530120482,0.274096386,0.728915663,0.179216867,0.722891566,0.304216867,0.530120482,0.552710843,0.295180723,0.75,0.200301205,0.74246988,0.325301205,0.548192771,0.572289157,0.31626506,0.769578313,00.221385542,0.777108434,0.370481928,0.600903614,0.646084337,0.397590361,0.84186747,0.266566265,0.78313253,0.350903614,0.561746988,0.581325301,0.31626506,0.754518072,0.19126506,0.914156627,0.787650602,0.862951807,0.615963855,0.281626506,0.739457831,0.206325301,0.756024096,0.335843373,0.552710843,0.581325301,0.319277108,0.772590361,0.225903614,0.765060241,0.356927711,0.576807229,0.615963855,0.362951807,0.825301205,0.289156627,0.831325301,0.43373494,0.643072289,0.668674699,0.38253012,0.807228916,0.234939759,0.740963855,0.320783133,0.518072289,0.542168675,0.277108434,0.721385542,0.170180723,0.704819277,0.293674699,0.50753012,0.53313253,0.271084337,0.72439759,0.171686747,0.725903614,0.290662651,0.545180723,0.528614458,0.299698795,0.737951807,0.18373494,0.751506024,0.287650602,0.56626506,0.539156627,0.319277108,0.746987952,0.206325301,0.734939759,0.335843373,0.542168675,0.605421687,0.338855422,0.804216867,0.290662651,0.799698795,0.420180723,0.545180723,0.625,0.292168675,0.766566265,0.221385542,0.706325301,0.350903614,0.521084337,0.93373494,0.793674699,0.909638554,0.215361446,0.709337349,0.359939759,0.521084337,0.628012048,0.287650602,0.793674699,0.221385542,0.737951807,0.385542169,0.52560241,0.638554217,0.307228916,0.813253012,0.265060241,0.786144578,0.453313253,0.594879518,0.721385542,0.388554217,0.875,0.307228916,0.777108434,0.412650602,0.50753012,0.611445783,0.254518072,0.75,0.180722892,0.680722892,0.332831325,0.462349398,0.578313253,0.240963855,0.739457831,0.176204819,0.692771084,0.334337349,0.475903614,0.587349398,0.253012048,0.748493976,0.188253012,0.692771084,0.340361446,0.483433735,0.593373494,0.25753012,0.760542169,0.198795181,0.710843373,0.373493976,0.522590361,0.643072289,0.326807229,0.840361446,0.293674699,0.766566265,0.414156627,0.509036145,0.628012048,0.27560241,0.774096386,0.21686747,0.69126506,0.417168675,0.850903614,0.996987952,0.506024096,0.754518072,0.195783133,0.700301205,0.387048193,0.489457831,0.623493976,0.268072289,0.777108434,0.22439759,0.719879518,0.394578313,0.506024096,0.646084337,0.30873494,0.81626506,0.277108434,0.792168675,0.457831325,0.602409639,0.715361446,0.384036145,0.862951807,0.268072289,0.771084337,0.365963855,0.522590361,0.573795181,0.269578313,0.737951807,0.167168675,0.718373494,0.28313253,0.512048193,0.530120482,0.274096386,0.734939759,0.165662651,0.727409639,0.280120482,0.528614458,0.527108434,0.280120482,0.731927711,0.170180723,0.730421687,0.28313253,0.542168675,0.531626506,0.295180723,0.739457831,0.180722892,0.740963855,0.295180723,0.549698795,0.540662651,0.319277108,0.774096386,0.22439759,0.804216867,0.375,0.629518072,0.59939759,0.338855422,0.768072289,0.198795181,0.75753012,0.304216867,0.560240964,0.530120482,0.402108434,1,0.719879518,0.804216867,0.277108434,0.551204819,0.546686747,0.323795181,0.756024096,0.194277108,0.75,0.301204819,0.560240964,0.548192771,0.317771084,0.765060241,0.207831325,0.786144578,0.340361446,0.612951807,0.612951807,0.393072289,0.84186747,0.281626506,0.838855422,0.368975904,0.609939759,0.56626506,0.310240964,0.737951807,0.15813253,0.719879518,0.25753012,0.522590361,0.504518072,0.265060241,0.715361446,0.146084337,0.746987952,0.195783133,0.614457831,0.420180723,0.362951807,0.667168675,0.176204819,0.759036145,0.207831325,0.626506024,0.432228916,0.375,0.680722892,0.186746988,0.772590361,0.221385542,0.638554217,0.448795181,0.393072289,0.695783133,0.201807229,0.789156627,0.239457831,0.65060241,0.460843373,0.405120482,0.715361446,0.234939759,0.825301205,0.293674699,0.722891566,0.545180723,0.471385542,0.759036145,0.24246988,0.810240964,0.25753012,0.662650602,0.471385542,0.397590361,0.710843373,0.426204819,0.996987952,0.647590361,0.641566265,0.450301205,0.393072289,0.719879518,0.219879518,0.799698795,0.243975904,0.656626506,0.468373494,0.403614458,0.713855422,0.219879518,0.810240964,0.265060241,0.686746988,0.509036145,0.459337349,0.781626506,0.296686747,0.885542169,0.338855422,0.736445783,0.530120482,0.438253012,0.72439759,0.200301205,0.771084337,0.209337349,0.609939759,0.420180723,0.347891566,0.65813253,0.159638554,0.74246988,0.198795181,0.602409639,0.423192771,0.352409639,0.668674699,0.170180723,0.75,0.206325301,0.612951807,0.43373494,0.362951807,0.68373494,0.189759036,0.771084337,0.228915663,0.628012048,0.453313253,0.384036145,0.704819277,0.201807229,0.780120482,0.24246988,0.644578313,0.471385542,0.399096386,0.719879518,0.227409639,0.820783133,0.286144578,0.697289157,0.545180723,0.480421687,0.787650602,0.265060241,0.820783133,0.27560241,0.661144578,0.484939759,0.402108434,0.709337349,0.22439759,0.993975904,0.771084337,0.894578313,0.501506024,0.373493976,0.706325301,0.215361446,0.790662651,0.246987952,0.640060241,0.469879518,0.388554217,0.718373494,0.213855422,0.796686747,0.263554217,0.665662651,0.504518072,0.444277108,0.77560241,0.289156627,0.878012048,0.34939759,0.74246988,0.561746988,0.457831325,0.756024096,0.222891566,0.781626506,0.21686747,0.614457831,0.426204819,0.347891566,0.667168675,0.156626506,0.743975904,0.197289157,0.600903614,0.423192771,0.347891566,0.670180723,0.161144578,0.753012048,0.200301205,0.609939759,0.430722892,0.355421687,0.682228916,0.173192771,0.766566265,0.215361446,0.631024096,0.444277108,0.378012048,0.698795181,0.189759036,0.78313253,0.231927711,0.646084337,0.460843373,0.396084337,0.739457831,0.228915663,0.843373494,0.307228916,0.731927711,0.53313253,0.436746988,0.745481928,0.212349398,0.80873494,0.240963855,0.653614458,0.456325301,0.385542169,0.906626506,0.695783133,0.990963855,0.27560241,0.638554217,0.448795181,0.40060241,0.72439759,0.204819277,0.802710843,0.237951807,0.653614458,0.47439759,0.40060241,0.736445783,0.221385542,0.826807229,0.274096386,0.694277108,0.527108434,0.459337349,0.798192771,0.295180723,0.885542169,0.325301205,0.710843373,0.513554217,0.409638554,0.712349398,0.180722892,0.772590361,0.200301205,0.611445783,0.427710843,0.34939759,0.682228916,0.159638554,0.765060241,0.203313253,0.618975904,0.435240964,0.362951807,0.69126506,0.176204819,0.772590361,0.218373494,0.625,0.448795181,0.370481928,0.701807229,0.189759036,0.78313253,0.230421687,0.638554217,0.46686747,0.387048193,0.727409639,0.228915663,0.829819277,0.302710843,0.722891566,0.554216867,0.450301205,0.759036145,0.213855422,0.811746988,0.24246988,0.646084337,0.468373494,0.365963855,0.745481928,0.530120482,0.995481928,0.457831325,0.594879518,0.427710843,0.359939759,0.712349398,0.189759036,0.789156627,0.225903614,0.643072289,0.465361446,0.385542169,0.719879518,0.204819277,0.813253012,0.260542169,0.688253012,0.522590361,0.456325301,0.804216867,0.292168675,0.896084337,0.335843373,0.727409639,0.524096386,0.418674699,0.728915663,0.18373494,0.774096386,0.203313253,0.611445783,0.426204819,0.344879518,0.677710843,0.15060241,0.760542169,0.198795181,0.608433735,0.435240964,0.352409639,0.688253012,0.168674699,0.765060241,0.212349398,0.615963855,0.447289157,0.359939759,0.700301205,0.179216867,0.778614458,0.227409639,0.625,0.463855422,0.36746988,0.718373494,0.19126506,0.798192771,0.246987952,0.653614458,0.513554217,0.417168675,0.786144578,0.277108434,0.870481928,0.31626506,0.677710843,0.506024096,0.391566265,0.734939759,0.207831325,0.793674699,0.234939759,0.679216867,0.847891566,0.90813253,0.86746988,0.180722892,0.781626506,0.251506024,0.646084337,0.489457831,0.379518072,0.728915663,0.204819277,0.796686747,0.25753012,0.647590361,0.5,0.402108434,0.75753012,0.245481928,0.844879518,0.329819277,0.71686747,0.587349398,0.477409639,0.820783133,0.302710843,0.811746988,0.334337349,0.560240964,0.542168675,0.27560241,0.71686747,0.156626506,0.698795181,0.27560241,0.49246988,0.519578313,0.260542169,0.713855422,0.162650602,0.697289157,0.289156627,0.5,0.527108434,0.268072289,0.721385542,0.165662651,0.730421687,0.268072289,0.55873494,0.501506024,0.323795181,0.71686747,0.197289157,0.753012048,00.285930408,0.597579425,0.514372163,0.366111952,0.73827534,0.234493192,0.809379728,0.322239032,0.677760968,0.583963691,0.444780635,0.791225416,0.248108926,0.800302572,0.288956127,0.62934947,0.512859304,0.372163389,0.718608169,0.281391831,1,0.800302572,0.712556732,0.514372163,0.367624811,0.741301059,0.228441755,0.788199697,0.278366112,0.615733737,0.509833585,0.36913767,0.73827534,0.220877458,0.785173979,0.302571861,0.62934947,0.550680787,0.406959153,0.789712557,0.291981846,0.853252648,0.379727685,0.689863843,0.580937973,0.411497731,0.753403933,0.201210287,0.763993949,0.231467474,0.583963691,0.452344932,0.32526475,0.685325265,0.160363086,0.747352496,0.225416036,0.588502269,0.458396369,0.331316188,0.694402421,0.163388805,0.751891074,0.222390318,0.597579425,0.462934947,0.338880484,0.704992436,0.177004539,0.763993949,0.237518911,0.611195159,0.482602118,0.361573374,0.727685325,0.19515885,0.788199697,0.2602118,0.62934947,0.502269289,0.382753404,0.757942511,0.240544629,0.842662632,0.331316188,0.709531014,0.574886536,0.425113464,0.765506808,0.21785174,0.80332829,0.269288956,0.633888048,0.491679274,0.361573374,0.886535552,0.686838124,1,0.341906203,0.603630862,0.476550681,0.366111952,0.736762481,0.19515885,0.791225416,0.252647504,0.626323752,0.493192133,0.36913767,0.7397882,0.211800303,0.812405446,0.288956127,0.671709531,0.553706505,0.444780635,0.816944024,0.295007564,0.883509834,0.346444781,0.698940998,0.544629349,0.3903177,0.732223903,0.177004539,0.762481089,0.21633888,0.590015129,0.449319213,0.32526475,0.691376702,0.161875946,0.754916793,0.222390318,0.594553707,0.464447806,0.335854766,0.704992436,0.169440242,0.76096823,0.234493192,0.594553707,0.472012103,0.343419062,0.712556732,0.175491679,0.773071104,0.240544629,0.611195159,0.487140696,0.361573374,0.732223903,0.202723147,0.788199697,0.298033283,0.636913767,0.567322239,0.428139183,0.818456884,0.264750378,0.832072617,0.296520424,0.627836611,0.518910741,0.364599092,0.750378215,0.186081694,0.794251135,0.514372163,0.992435703,0.747352496,0.354009077,0.723146747,0.186081694,0.797276853,0.28290469,0.617246596,0.524962179,0.363086233,0.742813918,0.232980333,0.754916793,0.346444781,0.570347958,0.599092284,0.349470499,0.80332829,0.276853253,0.807866868,0.432677761,0.621785174,0.682299546,0.379727685,0.827534039,0.248108926,0.754916793,0.329803328,0.531013616,0.538577912,0.295007564,0.726172466,0.149773071,0.771558245,0.180030257,0.650529501,0.402420575,0.406959153,0.661119516,0.193645991,0.78214826,0.190620272,0.670196672,0.396369138,0.419062027,0.664145234,0.207261725,0.794251135,0.198184569,0.688350983,0.411497731,0.438729198,0.676248109,0.220877458,0.822995461,0.234493192,0.73827534,0.481089259,0.514372163,0.745839637,0.267776097,0.821482602,0.222390318,0.683812405,0.422087746,0.431164902,0.668683812,0.201210287,0.954614221,0.676248109,0.97881997,0.461422088,0.393343419,0.650529501,0.207261725,0.80332829,0.201210287,0.685325265,0.414523449,0.437216339,0.683812405,0.226928896,0.812405446,0.240544629,0.703479576,0.470499244,0.481089259,0.759455371,0.305597579,0.897125567,0.334341906,0.788199697,0.535552194,0.506807867,0.73827534,0.245083207,0.80484115,0.202723147,0.662632375,0.3903177,0.402420575,0.650529501,0.177004539,0.768532526,0.169440242,0.653555219,0.384266263,0.402420575,0.65204236,0.181543116,0.777609682,0.180030257,0.668683812,0.393343419,0.417549168,0.665658094,0.19515885,0.795763994,0.19515885,0.682299546,0.408472012,0.432677761,0.682299546,0.213313162,0.809379728,0.208774584,0.715582451,0.450832073,0.484114977,0.748865356,0.291981846,0.883509834,0.2602118,0.726172466,0.437216339,0.447806354,0.692889561,0.21633888,0.809379728,0.187594554,0.807866868,0.854765507,0.886535552,0.727685325,0.158850227,0.779122542,0.193645991,0.683812405,0.417549168,0.419062027,0.67322239,0.231467474,0.744326778,0.279878971,0.591527988,0.520423601,0.372163389,0.753403933,0.249621785,0.821482602,0.355521936,0.682299546,0.606656581,0.461422088,0.822995461,0.295007564,0.822995461,0.313161876,0.600605144,0.502269289,0.337367625,0.700453858,0.177004539,0.733736762,0.248108926,0.56429652,0.481089259,0.32526475,0.701966717,0.181543116,0.741301059,0.255673222,0.573373676,0.487140696,0.334341906,0.697428139,0.198184569,0.736762481,0.263237519,0.588502269,0.479576399,0.363086233,0.697428139,0.21633888,0.747352496,0.275340393,0.602118003,0.494704992,0.378214826,0.712556732,0.234493192,0.779122542,0.320726172,0.655068079,0.570347958,0.459909228,0.794251135,0.293494705,0.798789713,0.305597579,0.624810893,0.508320726,0.388804841,0.712556732,0.211800303,0.835098336,0.701966717,0.992435703,0.627836611,0.350983359,0.700453858,0.226928896,0.771558245,0.284417549,0.614220877,0.494704992,0.387291982,0.715582451,0.236006051,0.776096823,0.301059002,0.641452345,0.531013616,0.437216339,0.774583964,0.314674735,0.857791225,0.387291982,0.735249622,0.599092284,0.485627837,0.768532526,0.272314675,0.78366112,0.266263238,0.6096823,0.447806354,0.366111952,0.659606657,0.190620272,0.732223903,0.222390318,0.602118003,0.431164902,0.36913767,0.665658094,0.198184569,0.73827534,0.226928896,0.606656581,0.43570348,0.373676248,0.667170953,0.204236006,0.750378215,0.242057489,0.621785174,0.455370651,0.3903177,0.688350983,0.220877458,0.763993949,0.255673222,0.632375189,0.470499244,0.41301059,0.723146747,0.26172466,0.821482602,0.329803328,0.709531014,0.524962179,0.43570348,0.711043873,0.232980333,0.770045386,0.255673222,0.627836611,0.449319213,0.406959153,0.987897126,0.744326778,0.930408472,0.267776097,0.617246596,0.461422088,0.403933434,0.701966717,0.220877458,0.763993949,0.2602118,0.63086233,0.475037821,0.403933434,0.712556732,0.242057489,0.792738275,0.296520424,0.682299546,0.540090772,0.481089259,0.792738275,0.328290469,0.865355522,0.350983359,0.694402421,0.52193646,0.41301059,0.700453858,0.207261725,0.741301059,0.229954614,0.593040847,0.43570348,0.357034796,0.665658094,0.184568835,0.735249622,0.229954614,0.599092284,0.444780635,0.367624811,0.676248109,0.19515885,0.742813918,0.234493192,0.602118003,0.453857791,0.366111952,0.680786687,0.199697428,0.742813918,0.252647504,0.602118003,0.476550681,0.367624811,0.698940998,0.211800303,0.76096823,0.269288956,0.624810893,0.514372163,0.41301059,0.76096823,0.293494705,0.845688351,0.355521936,0.667170953,0.529500756,0.403933434,0.729198185,0.232980333,0.774583964,0.272314675,0.611195159,0.682299546,0.880484115,0.996974281,0.26172466,0.765506808,0.269288956,0.632375189,0.502269289,0.388804841,0.715582451,0.220877458,0.773071104,0.279878971,0.624810893,0.503782148,0.397881997,0.7397882,0.257186082,0.812405446,0.340393343,0.691376702,0.580937973,0.47806354,0.806354009,0.311649017,0.833585477,0.32677761,0.639939486,0.49924357,0.367624811,0.689863843,0.189107413,0.735249622,0.240544629,0.583963691,0.459909228,0.341906203,0.682299546,0.189107413,0.73827534,0.245083207,0.591527988,0.470499244,0.352496218,0.692889561,0.19515885,0.750378215,0.258698941,0.599092284,0.485627837,0.367624811,0.711043873,0.214826021,0.770045386,0.276853253,0.617246596,0.50075643,0.379727685,0.726172466,0.229954614,0.780635401,0.305597579,0.650529501,0.553706505,0.449319213,0.80484115,0.30408472,0.830559758,0.323751891,0.641452345,0.523449319,0.388804841,0.736762481,0.220877458,0.768532526,0.45688351,0.996974281,0.883509834,0.399394856,0.723146747,0.21633888,0.786686838,0.293494705,0.615733737,0.509833585,0.37065053,0.724659607,0.222390318,0.771558245,0.290468986,0.621785174,0.526475038,0.396369138,0.76096823,0.273827534,0.830559758,0.366111952,0.697428139,0.602118003,0.458396369,0.791225416,0.26172466,0.78366112,0.278366112,0.582450832,0.475037821,0.328290469,0.682299546,0.167927383,0.71709531,0.234493192,0.558245083,0.461422088,0.319213313,0.685325265,0.17397882,0.723146747,0.242057489,0.559757943,0.472012103,0.32526475,0.689863843,0.178517398,0.736762481,0.26172466,0.576399395,00.484939759,0.337349398,0.701807229,0.197289157,0.748493976,0.277108434,0.585843373,0.506024096,0.350903614,0.722891566,0.218373494,0.763554217,0.299698795,0.611445783,0.552710843,0.391566265,0.790662651,0.290662651,0.838855422,0.355421687,0.63253012,0.543674699,0.370481928,0.734939759,0.222891566,0.759036145,0.281626506,0.638554217,0.897590361,0.879518072,0.844879518,0.200301205,0.743975904,0.293674699,0.593373494,0.522590361,0.346385542,0.725903614,0.212349398,0.751506024,0.295180723,0.588855422,0.530120482,0.364457831,0.753012048,0.253012048,0.802710843,0.362951807,0.662650602,0.614457831,0.445783133,0.820783133,0.299698795,0.810240964,0.335843373,0.588855422,0.512048193,0.319277108,0.694277108,0.170180723,0.709337349,0.251506024,0.534638554,0.484939759,0.301204819,0.69126506,0.176204819,0.719879518,0.263554217,0.549698795,0.493975904,0.314759036,0.704819277,0.186746988,0.728915663,0.277108434,0.561746988,0.510542169,0.326807229,0.721385542,0.204819277,0.743975904,0.299698795,0.572289157,0.530120482,0.347891566,0.739457831,0.222891566,0.762048193,0.317771084,0.590361446,0.549698795,0.361445783,0.768072289,0.259036145,0.805722892,0.381024096,0.659638554,0.618975904,0.40060241,0.77560241,0.240963855,0.771084337,0.31626506,0.579819277,0.540662651,0.332831325,0.868975904,0.68373494,0.993975904,0.412650602,0.549698795,0.524096386,0.338855422,0.740963855,0.213855422,0.748493976,0.305722892,0.569277108,0.536144578,0.337349398,0.74246988,0.222891566,0.768072289,0.34186747,0.608433735,0.597891566,0.406626506,0.825301205,0.313253012,0.843373494,0.409638554,0.643072289,0.594879518,0.361445783,0.739457831,0.195783133,0.718373494,0.278614458,0.528614458,0.495481928,0.290662651,0.695783133,0.168674699,0.706325301,0.268072289,0.527108434,0.504518072,0.293674699,0.703313253,0.174698795,0.712349398,0.277108434,0.531626506,0.510542169,0.301204819,0.715361446,0.188253012,0.725903614,0.292168675,0.548192771,0.53313253,0.319277108,0.737951807,0.204819277,0.745481928,0.314759036,0.564759036,0.551204819,0.331325301,0.75,0.219879518,0.754518072,0.343373494,0.59939759,0.59939759,0.397590361,0.831325301,0.302710843,0.805722892,0.364457831,0.587349398,0.573795181,0.335843373,0.75753012,0.218373494,0.731927711,0.43373494,0.969879518,0.957831325,0.394578313,0.746987952,0.195783133,0.748493976,0.329819277,0.557228916,0.554216867,0.314759036,0.739457831,0.207831325,0.740963855,0.320783133,0.55873494,0.573795181,0.34186747,0.778614458,0.262048193,0.799698795,0.403614458,0.634036145,0.652108434,0.406626506,0.822289157,0.265060241,0.766566265,0.334337349,0.530120482,0.537650602,0.278614458,0.710843373,0.168674699,0.703313253,0.287650602,0.50753012,0.528614458,0.278614458,0.718373494,0.179216867,0.709337349,0.299698795,0.518072289,0.539156627,0.287650602,0.725903614,0.185240964,0.718373494,0.310240964,0.528614458,0.552710843,0.296686747,0.74246988,0.197289157,0.728915663,0.323795181,0.536144578,0.56626506,0.307228916,0.753012048,0.210843373,0.746987952,0.364457831,0.570783133,0.631024096,0.379518072,0.831325301,0.271084337,0.778614458,0.362951807,0.55873494,0.588855422,0.317771084,0.765060241,0.203313253,0.795180723,0.727409639,0.968373494,0.712349398,0.287650602,0.740963855,0.204819277,0.745481928,0.344879518,0.539156627,0.587349398,0.307228916,0.769578313,0.225903614,0.75,0.364457831,0.560240964,0.620481928,0.347891566,0.820783133,0.289156627,0.813253012,0.454819277,0.626506024,0.69126506,0.381024096,0.823795181,0.256024096,0.74246988,0.346385542,0.50753012,0.563253012,0.265060241,0.728915663,0.174698795,0.694277108,0.30873494,0.486445783,0.551204819,0.25753012,0.728915663,0.177710843,0.698795181,0.31626506,0.493975904,0.55873494,0.259036145,0.736445783,0.185240964,0.704819277,0.326807229,0.498493976,0.576807229,0.274096386,0.745481928,0.209337349,0.712349398,0.359939759,0.506024096,0.603915663,0.292168675,0.786144578,0.253012048,0.75753012,0.438253012,0.576807229,0.680722892,0.332831325,0.784638554,0.228915663,0.71686747,0.36746988,0.50753012,0.594879518,0.263554217,0.921686747,0.701807229,0.980421687,0.44126506,0.46686747,0.600903614,0.287650602,0.760542169,0.233433735,0.694277108,0.388554217,0.487951807,0.61746988,0.287650602,0.763554217,0.253012048,0.718373494,0.426204819,0.537650602,0.680722892,0.361445783,0.852409639,0.340361446,0.796686747,0.486445783,0.567771084,0.673192771,0.310240964,0.765060241,0.209337349,0.685240964,0.338855422,0.46686747,0.573795181,0.240963855,0.733433735,0.179216867,0.682228916,0.332831325,0.471385542,0.576807229,0.243975904,0.739457831,0.185240964,0.677710843,0.350903614,0.465361446,0.588855422,0.246987952,0.748493976,0.195783133,0.695783133,0.361445783,0.489457831,0.608433735,0.269578313,0.772590361,0.219879518,0.71686747,0.379518072,0.5,0.640060241,0.304216867,0.81626506,0.284638554,0.789156627,0.453313253,0.543674699,0.649096386,0.281626506,0.781626506,0.21686747,0.713855422,0.371987952,0.477409639,0.74246988,0.739457831,0.996987952,0.319277108,0.692771084,0.364457831,0.496987952,0.63253012,0.265060241,0.777108434,0.209337349,0.709337349,0.379518072,0.489457831,0.631024096,0.27560241,0.795180723,0.25,0.751506024,0.444277108,0.55873494,0.712349398,0.361445783,0.86746988,0.30873494,0.778614458,0.435240964,0.504518072,0.628012048,0.240963855,0.746987952,0.177710843,0.665662651,0.340361446,0.436746988,0.584337349,0.212349398,0.728915663,0.176204819,0.647590361,0.350903614,0.421686747,0.597891566,0.21686747,0.734939759,0.192771084,0.65813253,0.36746988,0.436746988,0.612951807,0.233433735,0.75,0.204819277,0.671686747,0.388554217,0.451807229,0.637048193,0.253012048,0.769578313,0.233433735,0.688253012,0.421686747,0.490963855,0.685240964,0.319277108,0.84186747,0.322289157,0.740963855,0.46686747,0.483433735,0.673192771,0.268072289,0.780120482,0.246987952,0.662650602,0.436746988,0.753012048,1,0.50753012,0.760542169,0.213855422,0.659638554,0.424698795,0.456325301,0.653614458,0.248493976,0.769578313,0.234939759,0.68373494,0.429216867,0.469879518,0.674698795,0.277108434,0.80873494,0.284638554,0.743975904,0.504518072,0.551204819,0.756024096,0.352409639,0.858433735,0.305722892,0.722891566,0.439759036,0.448795181,0.640060241,0.222891566,0.746987952,0.195783133,0.641566265,0.378012048,0.412650602,0.620481928,0.213855422,0.743975904,0.197289157,0.646084337,0.388554217,0.421686747,0.628012048,0.219879518,0.753012048,0.212349398,0.656626506,0.399096386,0.430722892,0.643072289,0.233433735,0.762048193,0.22439759,0.668674699,0.417168675,0.444277108,0.668674699,0.274096386,0.80873494,0.295180723,0.746987952,0.504518072,0.50753012,0.698795181,0.263554217,0.787650602,0.236445783,0.676204819,0.421686747,0.421686747,0.685240964,0.575301205,0.996987952,0.456325301,0.63253012,0.388554217,0.414156627,0.661144578,0.233433735,0.765060241,0.228915663,0.662650602,0.430722892,0.435240964,0.673192771,0.253012048,0.790662651,0.277108434,0.692771084,0.496987952,0.489457831,0.754518072,0.326807229,0.859939759,0.34939759,0.722891566,0.516566265,0.444277108,0.695783133,0.22439759,0.740963855,0.236445783,0.579819277,0.453313253,0.344879518,0.665662651,0.186746988,0.728915663,0.251506024,0.576807229,0.47439759,0.340361446,0.694277108,0.189759036,0.74246988,0.254518072,0.587349398,0.481927711,0.346385542,0.701807229,0.197289157,0.754518072,0.268072289,0.597891566,0.504518072,0.364457831,0.72439759,0.213855422,0.772590361,0.28313253,0.611445783,0.528614458,0.40813253,0.75753012,0.289156627,0.837349398,0.356927711,0.65813253,0.527108434,0.388554217,0.715361446,0.225903614,0.760542169,0.27560241,0.590361446,0.640060241,0.850903614,0.995481928,0.304216867,0.743975904,0.27560241,0.609939759,0.510542169,0.373493976,0.715361446,0.221385542,0.754518072,0.284638554,0.59939759,0.506024096,0.378012048,0.730421687,0.25,0.795180723,0.343373494,0.664156627,0.59186747,0.465361446,0.81626506,0.323795181,00.834087481,0.349924585,0.62745098,0.518853695,0.352941176,0.69984917,0.190045249,0.720965309,0.253393665,0.542986425,0.4826546,0.310708899,0.701357466,0.177978884,0.728506787,0.263951735,0.55505279,0.502262443,0.316742081,0.708898944,0.179487179,0.739064857,0.274509804,0.562594268,0.515837104,0.331825038,0.730015083,0.199095023,0.751131222,0.28959276,0.568627451,0.527903469,0.339366516,0.739064857,0.212669683,0.766214178,0.307692308,0.583710407,0.547511312,0.34841629,0.763197587,0.250377074,0.800904977,0.375565611,0.654600302,0.625942685,0.402714932,0.779788839,0.2413273,0.766214178,0.319758673,0.576168929,0.539969834,0.325791855,0.808446456,0.63800905,0.998491704,0.478129713,0.536953243,0.53092006,0.342383107,0.74811463,0.224736048,0.752639517,0.316742081,0.574660633,0.55505279,0.351432881,0.755656109,0.2413273,0.775263952,0.355957768,0.612368024,0.615384615,0.411764706,0.838612368,0.32428356,0.862745098,0.432880845,0.653092006,0.628959276,0.377073906,0.769230769,0.212669683,0.737556561,0.292609351,0.535444947,0.524886878,0.28959276,0.716440422,0.171945701,0.716440422,0.283559578,0.523378582,0.526395173,0.294117647,0.713423831,0.185520362,0.707390649,0.295625943,0.521870287,0.532428356,0.306184012,0.722473605,0.205128205,0.726998492,0.315233786,0.547511312,0.556561086,0.325791855,0.742081448,0.223227753,0.745098039,0.336349925,0.561085973,0.573152338,0.339366516,0.766214178,0.247360483,0.775263952,0.378582202,0.607843137,0.647058824,0.417797888,0.819004525,0.279034691,0.767722474,0.355957768,0.561085973,0.577677225,0.328808446,0.742081448,0.218702866,0.945701357,0.815987934,0.852187029,0.606334842,0.301659125,0.739064857,0.229260935,0.745098039,0.343891403,0.54147813,0.577677225,0.325791855,0.754147813,0.22775264,0.74811463,0.358974359,0.56561086,0.606334842,0.366515837,0.809954751,0.303167421,0.815987934,0.443438914,0.636500754,0.672699849,0.392156863,0.800904977,0.25188537,0.728506787,0.328808446,0.50678733,0.536953243,0.274509804,0.707390649,0.176470588,0.681749623,0.298642534,0.487179487,0.533936652,0.266968326,0.713423831,0.185520362,0.684766214,0.310708899,0.494720965,0.552036199,0.274509804,0.726998492,0.19306184,0.698340875,0.328808446,0.503770739,0.564102564,0.285067873,0.73453997,0.205128205,0.702865762,0.339366516,0.508295626,0.583710407,0.318250377,0.77224736,0.26546003,0.778280543,0.431372549,0.573152338,0.633484163,0.315233786,0.761689291,0.226244344,0.714932127,0.357466063,0.49321267,0.601809955,0.57918552,0.998491704,0.521870287,0.692307692,0.328808446,0.488687783,0.597285068,0.294117647,0.749622926,0.218702866,0.708898944,0.371040724,0.511312217,0.604826546,0.307692308,0.77224736,0.253393665,0.745098039,0.419306184,0.567119155,0.677224736,0.383107089,0.847662142,0.32428356,0.788838612,0.437405732,0.54147813,0.616892911,0.280542986,0.733031674,0.191553544,0.668174962,0.327300151,0.453996983,0.55505279,0.239819005,0.713423831,0.184012066,0.665158371,0.339366516,0.464555053,0.576168929,0.247360483,0.720965309,0.194570136,0.669683258,0.345399698,0.467571644,0.585218703,0.260935143,0.737556561,0.211161388,0.684766214,0.368024133,0.4826546,0.606334842,0.2760181,0.751131222,0.224736048,0.698340875,0.393665158,0.5173454,0.650075415,0.336349925,0.828054299,0.306184012,0.746606335,0.419306184,0.499245852,0.62745098,0.280542986,0.761689291,0.233785822,0.678733032,0.453996983,0.885369532,0.998491704,0.435897436,0.737556561,0.215686275,0.689291101,0.39668175,0.476621418,0.615384615,0.268476621,0.757164404,0.229260935,0.684766214,0.392156863,0.481146305,0.631975867,0.28959276,0.788838612,0.283559578,0.74811463,0.475113122,0.562594268,0.720965309,0.369532428,0.837104072,0.28959276,0.713423831,0.404223228,0.453996983,0.598793363,0.230769231,0.719457014,0.191553544,0.639517345,0.352941176,0.426847662,0.586726998,0.229260935,0.722473605,0.197586727,0.65158371,0.366515837,0.437405732,0.601809955,0.238310709,0.736048265,0.208144796,0.66214178,0.383107089,0.44494721,0.616892911,0.248868778,0.754147813,0.226244344,0.678733032,0.405731523,0.464555053,0.636500754,0.266968326,0.761689291,0.242835596,0.683257919,0.419306184,0.4826546,0.671191554,0.306184012,0.820512821,0.318250377,0.746606335,0.461538462,0.4826546,0.656108597,0.268476621,0.763197587,0.238310709,0.668174962,0.404223228,0.60331825,1,0.740573152,0.773755656,0.218702866,0.672699849,0.426847662,0.460030166,0.647058824,0.260935143,0.764705882,0.2413273,0.672699849,0.423831071,0.45852187,0.660633484,0.2760181,0.788838612,0.285067873,0.725490196,0.494720965,0.533936652,0.745098039,0.357466063,0.85520362,0.325791855,0.717948718,0.452488688,0.443438914,0.628959276,0.221719457,0.722473605,0.19306184,0.616892911,0.371040724,0.393665158,0.601809955,0.20361991,0.716440422,0.202111614,0.622926094,0.38612368,0.402714932,0.619909502,0.21719457,0.728506787,0.214177979,0.631975867,0.398190045,0.411764706,0.633484163,0.233785822,0.740573152,0.224736048,0.644042232,0.417797888,0.425339367,0.657616893,0.269984917,0.787330317,0.28959276,0.722473605,0.50678733,0.488687783,0.693815988,0.262443439,0.769230769,0.245852187,0.648567119,0.429864253,0.411764706,0.660633484,0.518853695,0.998491704,0.499245852,0.634992459,0.405731523,0.404223228,0.659125189,0.248868778,0.760180995,0.250377074,0.656108597,0.446455505,0.438914027,0.683257919,0.26546003,0.787330317,0.288084465,0.69984917,0.500754148,0.502262443,0.754147813,0.352941176,0.868778281,0.374057315,0.746606335,0.529411765,0.485671192,0.698340875,0.253393665,0.755656109,0.235294118,0.624434389,0.416289593,0.392156863,0.642533937,0.211161388,0.726998492,0.226244344,0.61387632,0.42081448,0.392156863,0.639517345,0.215686275,0.73453997,0.233785822,0.619909502,0.432880845,0.407239819,0.660633484,0.232277526,0.757164404,0.253393665,0.641025641,0.460030166,0.440422323,0.704374057,0.294117647,0.826546003,0.340874811,0.707390649,0.509803922,0.438914027,0.693815988,0.250377074,0.766214178,0.263951735,0.631975867,0.460030166,0.628959276,1,0.60331825,0.7586727,0.232277526,0.616892911,0.463046757,0.42081448,0.689291101,0.245852187,0.773755656,0.274509804,0.653092006,0.485671192,0.438914027,0.714932127,0.286576169,0.814479638,0.328808446,0.71040724,0.562594268,0.5173454,0.794871795,0.357466063,0.861236802,0.352941176,0.692307692,0.499245852,0.414781297,0.678733032,0.21719457,0.73453997,0.232277526,0.600301659,0.432880845,0.371040724,0.648567119,0.199095023,0.728506787,0.232277526,0.597285068,0.440422323,0.369532428,0.656108597,0.208144796,0.736048265,0.239819005,0.60331825,0.450980392,0.381598793,0.672699849,0.21719457,0.745098039,0.256410256,0.625942685,0.491704374,0.42081448,0.73453997,0.298642534,0.828054299,0.328808446,0.657616893,0.491704374,0.407239819,0.693815988,0.232277526,0.754147813,0.256410256,0.628959276,0.745098039,0.911010558,0.926093514,0.235294118,0.749622926,0.269984917,0.634992459,0.491704374,0.39668175,0.698340875,0.238310709,0.761689291,0.280542986,0.628959276,0.497737557,0.411764706,0.722473605,0.2760181,0.811463047,0.349924585,0.705882353,0.585218703,0.500754148,0.803921569,0.331825038,0.825037707,0.32428356,0.631975867,0.4826546,0.368024133,0.671191554,0.197586727,0.720965309,0.239819005,0.577677225,0.450980392,0.349924585,0.665158371,0.196078431,0.7239819,0.244343891,0.57918552,0.455505279,0.354449472,0.671191554,0.202111614,0.731523379,0.257918552,0.58974359,0.476621418,0.369532428,0.689291101,0.218702866,0.746606335,0.269984917,0.60331825,0.490196078,0.380090498,0.702865762,0.236802413,0.776772247,0.312217195,0.650075415,0.561085973,0.455505279,0.769230769,0.280542986,0.778280543,0.30015083,0.609351433,0.502262443,0.374057315,0.701357466,0.214177979,0.917043741,0.763197587,0.947209653,0.547511312,0.340874811,0.701357466,0.229260935,0.761689291,0.285067873,0.601809955,0.502262443,0.378582202,0.714932127,0.232277526,0.766214178,0.303167421,0.62745098,0.529411765,00.425113464,0.763993949,0.308623298,0.845688351,0.3903177,0.711043873,0.603630862,0.459909228,0.759455371,0.258698941,0.756429652,0.266263238,0.574886536,0.462934947,0.335854766,0.665658094,0.183055976,0.711043873,0.246596067,0.562783661,0.462934947,0.337367625,0.676248109,0.19667171,0.724659607,0.258698941,0.576399395,0.481089259,0.352496218,0.691376702,0.211800303,0.7397882,0.278366112,0.590015129,0.496217852,0.366111952,0.709531014,0.228441755,0.750378215,0.293494705,0.602118003,0.515885023,0.379727685,0.724659607,0.243570348,0.780635401,0.334341906,0.645990923,0.576399395,0.449319213,0.797276853,0.287443268,0.789712557,0.320726172,0.605143722,0.531013616,0.363086233,0.724659607,0.205748865,0.838124054,0.721633888,0.968229955,0.612708018,0.319213313,0.706505295,0.205748865,0.762481089,0.293494705,0.588502269,0.52193646,0.354009077,0.7397882,0.226928896,0.78214826,0.320726172,0.620272315,0.562783661,0.414523449,0.788199697,0.302571861,0.863842663,0.361573374,0.763993949,0.562783661,0.502269289,0.767019667,0.26172466,0.800302572,0.236006051,0.638426626,0.422087746,0.379727685,0.662632375,0.175491679,0.756429652,0.189107413,0.623298033,0.408472012,0.376701967,0.667170953,0.180030257,0.759455371,0.19515885,0.626323752,0.420574887,0.379727685,0.667170953,0.187594554,0.768532526,0.207261725,0.642965204,0.431164902,0.394856278,0.692889561,0.205748865,0.788199697,0.228441755,0.668683812,0.475037821,0.438729198,0.757942511,0.287443268,0.871406959,0.310136157,0.703479576,0.484114977,0.422087746,0.709531014,0.214826021,0.791225416,0.220877458,0.65204236,0.686838124,0.886535552,0.921331316,0.208774584,0.763993949,0.213313162,0.653555219,0.462934947,0.399394856,0.704992436,0.210287443,0.794251135,0.243570348,0.659606657,0.476550681,0.419062027,0.73827534,0.248108926,0.845688351,0.317700454,0.729198185,0.567322239,0.506807867,0.812405446,0.310136157,0.851739788,0.299546142,0.658093797,0.470499244,0.378214826,0.680786687,0.181543116,0.754916793,0.207261725,0.605143722,0.43419062,0.357034796,0.676248109,0.175491679,0.754916793,0.222390318,0.611195159,0.444780635,0.364599092,0.686838124,0.189107413,0.770045386,0.232980333,0.627836611,0.464447806,0.381240545,0.712556732,0.210287443,0.791225416,0.284417549,0.664145234,0.531013616,0.450832073,0.786686838,0.269288956,0.815431165,0.276853253,0.632375189,0.482602118,0.375189107,0.706505295,0.192133132,0.777609682,0.52193646,0.996974281,0.759455371,0.343419062,0.685325265,0.201210287,0.759455371,0.28290469,0.599092284,0.50075643,0.360060514,0.720121029,0.219364599,0.771558245,0.287443268,0.626323752,0.529500756,0.414523449,0.774583964,0.290468986,0.839636914,0.382753404,0.704992436,0.611195159,0.455370651,0.789712557,0.264750378,0.765506808,0.291981846,0.567322239,0.488653555,0.314674735,0.682299546,0.169440242,0.712556732,0.251134644,0.546142209,0.47806354,0.313161876,0.686838124,0.184568835,0.715582451,0.266263238,0.552193646,0.491679274,0.322239032,0.701966717,0.19515885,0.726172466,0.287443268,0.558245083,0.509833585,0.332829047,0.71709531,0.21633888,0.741301059,0.302571861,0.583963691,0.559757943,0.375189107,0.786686838,0.296520424,0.827534039,0.384266263,0.615733737,0.568835098,0.360060514,0.750378215,0.231467474,0.751891074,0.311649017,0.593040847,0.866868381,0.904689864,0.960665658,0.222390318,0.753403933,0.32677761,0.597579425,0.559757943,0.355521936,0.747352496,0.232980333,0.757942511,0.328290469,0.588502269,0.559757943,0.37065053,0.768532526,0.267776097,0.801815431,0.394856278,0.658093797,0.647503782,0.452344932,0.844175492,0.319213313,0.818456884,0.366111952,0.583963691,0.54311649,0.323751891,0.711043873,0.192133132,0.708018154,0.285930408,0.518910741,0.511346445,0.291981846,0.703479576,0.184568835,0.698940998,0.290468986,0.523449319,0.523449319,0.293494705,0.714069592,0.190620272,0.709531014,0.301059002,0.527987897,0.534039334,0.30408472,0.723146747,0.19667171,0.720121029,0.308623298,0.540090772,0.537065053,0.314674735,0.730711044,0.213313162,0.736762481,0.331316188,0.577912254,0.582450832,0.376701967,0.80332829,0.295007564,0.786686838,0.361573374,0.559757943,0.559757943,0.322239032,0.736762481,0.213313162,0.714069592,0.343419062,0.8698941,1,0.591527988,0.720121029,0.201210287,0.727685325,0.334341906,0.550680787,0.561270802,0.319213313,0.7397882,0.219364599,0.730711044,0.349470499,0.541603631,0.591527988,0.337367625,0.78366112,0.278366112,0.795763994,0.425113464,0.62934947,0.670196672,0.419062027,0.832072617,0.295007564,0.768532526,0.360060514,0.529500756,0.549167927,0.278366112,0.706505295,0.180030257,0.677760968,0.296520424,0.481089259,0.532526475,0.26172466,0.708018154,0.180030257,0.677760968,0.313161876,0.479576399,0.550680787,0.264750378,0.715582451,0.192133132,0.694402421,0.331316188,0.50075643,0.574886536,0.288956127,0.747352496,0.220877458,0.714069592,0.363086233,0.523449319,0.599092284,0.305597579,0.765506808,0.23903177,0.73827534,0.406959153,0.552193646,0.659606657,0.375189107,0.839636914,0.293494705,0.759455371,0.3903177,0.529500756,0.606656581,0.30408472,0.759455371,0.211800303,0.7397882,0.692889561,0.974281392,0.794251135,0.28290469,0.745839637,0.21785174,0.720121029,0.376701967,0.502269289,0.60816944,0.285930408,0.763993949,0.232980333,0.718608169,0.396369138,0.523449319,0.638426626,0.329803328,0.813918306,0.302571861,0.788199697,0.479576399,0.599092284,0.715582451,0.372163389,0.824508321,0.273827534,0.714069592,0.37065053,0.470499244,0.576399395,0.246596067,0.71709531,0.184568835,0.658093797,0.337367625,0.441754917,0.579425113,0.23903177,0.726172466,0.192133132,0.659606657,0.354009077,0.452344932,0.590015129,0.248108926,0.729198185,0.201210287,0.67322239,0.364599092,0.459909228,0.600605144,0.257186082,0.745839637,0.21633888,0.683812405,0.379727685,0.470499244,0.621785174,0.279878971,0.788199697,0.264750378,0.744326778,0.465960666,0.555219365,0.686838124,0.316187595,0.780635401,0.246596067,0.700453858,0.394856278,0.482602118,0.60816944,0.293494705,1,0.727685325,0.845688351,0.409984871,0.464447806,0.620272315,0.285930408,0.770045386,0.236006051,0.694402421,0.396369138,0.481089259,0.633888048,0.284417549,0.779122542,0.255673222,0.71709531,0.43570348,0.524962179,0.692889561,0.352496218,0.853252648,0.335854766,0.78366112,0.491679274,0.535552194,0.668683812,0.281391831,0.757942511,0.208774584,0.655068079,0.363086233,0.426626324,0.593040847,0.223903177,0.726172466,0.19667171,0.653555219,0.364599092,0.43419062,0.602118003,0.231467474,0.732223903,0.207261725,0.659606657,0.381240545,0.437216339,0.617246596,0.240544629,0.744326778,0.219364599,0.667170953,0.400907716,0.450832073,0.639939486,0.266263238,0.786686838,0.269288956,0.729198185,0.484114977,0.535552194,0.706505295,0.30408472,0.78366112,0.251134644,0.686838124,0.417549168,0.458396369,0.635400908,0.269288956,0.998487141,0.741301059,0.878971256,0.441754917,0.43570348,0.639939486,0.267776097,0.774583964,0.243570348,0.670196672,0.422087746,0.449319213,0.658093797,0.264750378,0.780635401,0.269288956,0.701966717,0.472012103,0.49924357,0.727685325,0.341906203,0.859304085,0.354009077,0.76096823,0.524962179,0.50075643,0.708018154,0.2602118,0.762481089,0.225416036,0.626323752,0.402420575,0.387291982,0.627836611,0.198184569,0.724659607,0.207261725,0.618759455,0.406959153,0.393343419,0.641452345,0.208774584,0.73827534,0.21785174,0.624810893,0.417549168,0.400907716,0.647503782,0.220877458,0.748865356,0.234493192,0.636913767,0.440242057,0.420574887,0.69591528,0.264750378,0.812405446,0.317700454,0.715582451,0.511346445,0.455370651,0.692889561,0.242057489,0.762481089,0.245083207,0.636913767,0.437216339,0.406959153,0.888048411,0.747352496,0.995461422,0.28290469,0.624810893,0.447806354,0.428139183,0.694402421,0.240544629,0.770045386,0.258698941,0.641452345,0.465960666,0.422087746,0.692889561,0.257186082,0.788199697,0.288956127,0.688350983,0.52193646,0.487140696,0.770045386,0.335854766,0.860816944,00.351963746,0.700906344,0.506042296,0.425981873,0.673716012,0.211480363,0.732628399,0.220543807,0.598187311,0.415407855,0.367069486,0.637462236,0.193353474,0.726586103,0.220543807,0.599697885,0.425981873,0.371601208,0.652567976,0.202416918,0.731117825,0.229607251,0.605740181,0.436555891,0.383685801,0.664652568,0.219033233,0.749244713,0.249244713,0.623867069,0.456193353,0.398791541,0.685800604,0.240181269,0.768882175,0.274924471,0.666163142,0.504531722,0.466767372,0.762839879,0.326283988,0.826283988,0.31570997,0.655589124,0.486404834,0.413897281,0.696374622,0.241691843,0.749244713,0.277945619,0.898791541,0.963746224,0.712990937,0.68429003,0.20694864,0.749244713,0.274924471,0.620845921,0.46978852,0.394259819,0.688821752,0.234138973,0.761329305,0.279456193,0.641993958,0.49244713,0.433534743,0.725075529,0.291540785,0.826283988,0.350453172,0.729607251,0.574018127,0.52265861,0.783987915,0.320241692,0.81570997,0.288519637,0.63897281,0.450151057,0.380664653,0.649546828,0.200906344,0.725075529,0.223564955,0.598187311,0.429003021,0.370090634,0.657099698,0.202416918,0.734138973,0.234138973,0.610271903,0.442598187,0.383685801,0.675226586,0.217522659,0.734138973,0.277945619,0.577039275,0.509063444,0.351963746,0.719033233,0.225075529,0.749244713,0.3081571,0.587613293,0.534743202,0.359516616,0.744712991,0.240181269,0.791540785,0.341389728,0.648036254,0.610271903,0.435045317,0.794561934,0.258308157,0.777945619,0.321752266,0.584592145,0.540785498,0.344410876,0.719033233,0.268882175,1,0.802114804,0.675226586,0.534743202,0.329305136,0.725075529,0.229607251,0.735649547,0.312688822,0.560422961,0.531722054,0.344410876,0.726586103,0.229607251,0.743202417,0.33081571,0.584592145,0.574018127,0.388217523,0.788519637,0.30060423,0.820241692,0.412386707,0.648036254,0.619335347,0.389728097,0.755287009,0.225075529,0.717522659,0.287009063,0.516616314,0.498489426,0.287009063,0.681268882,0.17673716,0.687311178,0.274924471,0.513595166,0.506042296,0.291540785,0.693353474,0.182779456,0.69939577,0.288519637,0.524169184,0.52265861,0.306646526,0.709969789,0.202416918,0.717522659,0.311178248,0.53776435,0.548338369,0.314199396,0.737160121,0.216012085,0.741691843,0.33836858,0.558912387,0.598187311,0.359516616,0.811178248,0.290030211,0.829305136,0.406344411,0.604229607,0.599697885,0.339879154,0.773413897,0.223564955,0.755287009,0.332326284,0.543806647,0.755287009,0.818731118,0.996978852,0.261329305,0.735649547,0.264350453,0.637462236,0.50755287,0.370090634,0.752265861,0.196374622,0.802114804,0.270392749,0.63141994,0.519637462,0.380664653,0.773413897,0.229607251,0.844410876,0.327794562,0.697885196,0.602719033,0.46223565,0.84592145,0.290030211,0.871601208,0.32326284,0.641993958,0.516616314,0.339879154,0.723564955,0.155589124,0.753776435,0.225075529,0.570996979,0.468277946,0.309667674,0.70694864,0.152567976,0.749244713,0.231117825,0.572507553,0.47734139,0.312688822,0.717522659,0.151057402,0.758308157,0.235649547,0.587613293,0.493957704,0.320241692,0.734138973,0.166163142,0.773413897,0.255287009,0.608761329,0.53776435,0.364048338,0.803625378,0.253776435,0.850453172,0.318731118,0.622356495,0.531722054,0.33836858,0.755287009,0.182779456,0.782477341,0.250755287,0.648036254,0.906344411,0.832326284,0.84592145,0.155589124,0.752265861,0.259818731,0.596676737,0.531722054,0.320241692,0.756797583,0.182779456,0.780966767,0.287009063,0.595166163,0.560422961,0.351963746,0.787009063,0.268882175,0.767371601,0.444108761,0.572507553,0.708459215,0.370090634,0.862537764,0.290030211,0.770392749,0.409365559,0.496978852,0.610271903,0.241691843,0.747734139,0.170694864,0.675226586,0.335347432,0.441087613,0.587613293,0.225075529,0.741691843,0.178247734,0.678247734,0.354984894,0.457703927,0.611782477,0.235649547,0.755287009,0.190332326,0.68429003,0.365558912,0.456193353,0.620845921,0.243202417,0.767371601,0.205438066,0.687311178,0.392749245,0.466767372,0.632930514,0.268882175,0.788519637,0.262839879,0.726586103,0.46978852,0.540785498,0.709969789,0.312688822,0.797583082,0.252265861,0.693353474,0.415407855,0.466767372,0.640483384,0.244712991,0.901812689,0.696374622,0.989425982,0.486404834,0.416918429,0.623867069,0.250755287,0.770392749,0.232628399,0.670694864,0.418429003,0.448640483,0.651057402,0.259818731,0.774924471,0.258308157,0.696374622,0.460725076,0.495468278,0.712990937,0.333836858,0.856495468,0.350453172,0.768882175,0.528700906,0.52265861,0.714501511,0.282477341,0.773413897,0.232628399,0.641993958,0.403323263,0.409365559,0.626888218,0.214501511,0.729607251,0.20694864,0.626888218,0.398791541,0.401812689,0.634441088,0.209969789,0.749244713,0.209969789,0.64652568,0.410876133,0.410876133,0.660120846,0.212990937,0.768882175,0.223564955,0.657099698,0.433534743,0.422960725,0.679758308,0.228096677,0.783987915,0.240181269,0.66918429,0.453172205,0.432024169,0.69939577,0.253776435,0.821752266,0.285498489,0.725075529,0.533232628,0.50755287,0.756797583,0.271903323,0.809667674,0.262839879,0.672205438,0.463746224,0.422960725,0.67673716,0.262839879,1,0.774924471,0.806646526,0.46223565,0.404833837,0.688821752,0.247734139,0.782477341,0.250755287,0.652567976,0.457703927,0.418429003,0.690332326,0.238670695,0.783987915,0.268882175,0.66163142,0.49244713,0.453172205,0.750755287,0.305135952,0.86102719,0.351963746,0.741691843,0.548338369,0.46978852,0.725075529,0.241691843,0.762839879,0.223564955,0.608761329,0.410876133,0.365558912,0.640483384,0.181268882,0.734138973,0.203927492,0.616314199,0.409365559,0.380664653,0.645015106,0.200906344,0.729607251,0.241691843,0.475830816,0.444108761,0.46223565,0.400302115,0.483383686,0.395770393,0.463746224,0.430513595,0.429003021,0.468277946,0.404833837,0.49244713,0.407854985,0.481873112,0.448640483,0.450151057,0.493957704,0.432024169,0.539274924,0.457703927,0.549848943,0.528700906,0.542296073,0.567975831,0.481873112,0.555891239,0.451661631,0.525679758,0.480362538,0.48489426,0.510574018,0.457703927,0.797583082,0.938066465,0.803625378,0.545317221,0.516616314,0.545317221,0.490936556,0.580060423,0.46978852,0.549848943,0.504531722,0.504531722,0.543806647,0.471299094,0.572507553,0.475830816,0.569486405,0.53021148,0.545317221,0.602719033,0.542296073,0.652567976,0.569486405,0.655589124,0.605740181,0.613293051,0.572507553,0.53776435,0.533232628,0.475830816,0.49244713,0.466767372,0.459214502,0.465256798,0.5,0.398791541,0.519637462,0.418429003,0.468277946,0.489425982,0.407854985,0.539274924,0.385196375,0.534743202,0.418429003,0.480362538,0.49244713,0.410876133,0.549848943,0.392749245,0.546827795,0.432024169,0.486404834,0.509063444,0.424471299,0.564954683,0.403323263,0.563444109,0.448640483,0.516616314,0.551359517,0.47734139,0.637462236,0.486404834,0.637462236,0.506042296,0.53021148,0.545317221,0.447129909,0.584592145,0.410876133,0.560422961,0.441087613,0.63897281,0.974320242,0.805135952,0.635951662,0.410876133,0.558912387,0.463746224,0.513595166,0.534743202,0.430513595,0.578549849,0.410876133,0.563444109,0.463746224,0.501510574,0.539274924,0.445619335,0.605740181,0.448640483,0.611782477,0.52265861,0.569486405,0.619335347,0.519637462,0.660120846,0.478851964,0.604229607,0.481873112,0.487915408,0.51510574,0.394259819,0.540785498,0.371601208,0.518126888,0.427492447,0.456193353,0.501510574,0.395770393,0.549848943,0.391238671,0.53021148,0.447129909,0.466767372,0.51510574,0.406344411,0.558912387,0.401812689,0.533232628,0.457703927,0.46978852,0.528700906,0.412386707,0.567975831,0.406344411,0.542296073,0.463746224,0.480362538,0.545317221,0.445619335,0.605740181,0.46223565,0.607250755,0.540785498,0.545317221,0.584592145,0.442598187,0.592145015,0.419939577,0.554380665,0.474320242,0.474320242,0.540785498,0.641993958,0.995468278,0.761329305,0.584592145,0.481873112,0.489425982,0.566465257,0.433534743,0.587613293,0.421450151,0.548338369,0.480362538,0.47734139,0.549848943,0.422960725,0.590634441,0.436555891,0.569486405,0.512084592,0.527190332,0.611782477,0.503021148,00.673748103,0.520485584,0.635811836,0.550834598,0.515933232,0.562974203,0.408194234,0.55538695,0.379362671,0.505311077,0.432473445,0.42185129,0.502276176,0.368740516,0.535660091,0.373292868,0.502276176,0.440060698,0.430955994,0.515933232,0.380880121,0.549317147,0.388467375,0.518968134,0.459787557,0.447647951,0.538694992,0.397572079,0.569044006,0.408194234,0.531107739,0.477996965,0.464339909,0.556904401,0.414264036,0.584218513,0.424886191,0.546282246,0.496206373,0.493171472,0.593323217,0.461305008,0.647951442,0.506828528,0.62215478,0.55538695,0.51138088,0.590288316,0.433990895,0.596358118,0.430955994,0.544764795,0.479514416,0.55538695,0.984825493,0.880121396,0.684370258,0.441578149,0.547799697,0.508345979,0.484066768,0.569044006,0.415781487,0.582701062,0.418816388,0.53262519,0.491654021,0.461305008,0.566009105,0.42185129,0.602427921,0.456752656,0.576631259,0.55538695,0.53414264,0.647951442,0.503793627,0.672230653,0.506828528,0.582701062,0.526555387,0.458270106,0.546282246,0.376327769,0.543247344,0.383915023,0.48861912,0.450682853,0.412746586,0.522003035,0.364188164,0.538694992,0.388467375,0.490136571,0.464339909,0.42185129,0.53414264,0.374810319,0.547799697,0.40060698,0.499241275,0.474962064,0.430955994,0.549317147,0.389984825,0.562974203,0.412746586,0.515933232,0.496206373,0.449165402,0.569044006,0.409711684,0.582701062,0.44461305,0.546282246,0.537177542,0.503793627,0.640364188,0.491654021,0.641881639,0.484066768,0.543247344,0.520485584,0.455235205,0.576631259,0.411229135,0.567526555,0.437025797,0.751138088,0.995447648,0.770864947,0.611532625,0.417298938,0.581183612,0.456752656,0.529590288,0.512898331,0.443095599,0.572078907,0.405159332,0.572078907,0.440060698,0.525037936,0.520485584,0.462822458,0.597875569,0.44461305,0.625189681,0.509863429,0.596358118,0.602427921,0.537177542,0.663125948,0.474962064,0.614567527,0.455235205,0.503793627,0.491654021,0.406676783,0.537177542,0.362670713,0.531107739,0.402124431,0.468892261,0.479514416,0.40060698,0.544764795,0.371775417,0.537177542,0.415781487,0.481031866,0.493171472,0.417298938,0.552352049,0.382397572,0.55538695,0.427921093,0.493171472,0.51138088,0.426403642,0.573596358,0.40060698,0.572078907,0.452200303,0.51138088,0.53414264,0.464339909,0.613050076,0.459787557,0.638846737,0.538694992,0.587253414,0.593323217,0.476479514,0.606980273,0.432473445,0.581183612,0.464339909,0.506828528,0.520485584,0.550834598,1,0.79969651,0.634294385,0.46585736,0.496206373,0.537177542,0.449165402,0.594840668,0.417298938,0.575113809,0.461305008,0.506828528,0.543247344,0.440060698,0.60091047,0.433990895,0.594840668,0.502276176,0.552352049,0.603945372,0.512898331,0.675265554,0.512898331,0.658573596,0.540212443,0.549317147,0.559939302,0.426403642,0.564491654,0.37784522,0.525037936,0.418816388,0.447647951,0.493171472,0.382397572,0.543247344,0.371775417,0.526555387,0.427921093,0.455235205,0.506828528,0.389984825,0.553869499,0.382397572,0.53262519,0.441578149,0.461305008,0.522003035,0.402124431,0.562974203,0.393019727,0.546282246,0.462822458,0.499241275,0.562974203,0.464339909,0.640364188,0.481031866,0.608497724,0.508345979,0.496206373,0.544764795,0.417298938,0.576631259,0.403641882,0.537177542,0.46737481,0.702579666,1,0.726858877,0.605462822,0.406676783,0.547799697,0.487101669,0.491654021,0.556904401,0.424886191,0.590288316,0.420333839,0.559939302,0.48861912,0.490136571,0.569044006,0.447647951,0.619119879,0.468892261,0.611532625,0.561456753,0.573596358,0.657056146,0.525037936,0.676783005,0.496206373,0.60091047,0.506828528,0.476479514,0.537177542,0.388467375,0.552352049,0.380880121,0.508345979,0.446130501,0.437025797,0.518968134,0.380880121,0.549317147,0.386949924,0.514415781,0.459787557,0.443095599,0.53262519,0.389984825,0.559939302,0.402124431,0.522003035,0.464339909,0.446130501,0.538694992,0.396054628,0.576631259,0.430955994,0.559939302,0.528072838,0.520485584,0.626707132,0.468892261,0.617602428,0.432473445,0.537177542,0.482549317,0.453717754,0.550834598,0.388467375,0.570561457,0.62215478,0.992412747,0.82245827,0.484066768,0.561456753,0.412746586,0.60091047,0.438543247,0.540212443,0.496206373,0.459787557,0.562974203,0.409711684,0.590288316,0.437025797,0.544764795,0.520485584,0.48861912,0.606980273,0.468892261,0.647951442,0.517450683,0.619119879,0.596358118,0.538694992,0.629742033,0.449165402,0.588770865,0.420333839,0.502276176,0.46585736,0.411229135,0.528072838,0.361153263,0.537177542,0.389984825,0.487101669,0.46737481,0.414264036,0.535660091,0.374810319,0.547799697,0.397572079,0.490136571,0.477996965,0.423368741,0.544764795,0.385432473,0.556904401,0.417298938,0.505311077,0.494688923,0.433990895,0.558421851,0.397572079,0.567526555,0.438543247,0.531107739,0.53414264,0.490136571,0.631259484,0.479514416,0.626707132,0.477996965,0.526555387,0.517450683,0.443095599,0.570561457,0.402124431,0.559939302,0.437025797,0.725341426,0.995447648,0.787556904,0.605462822,0.414264036,0.581183612,0.462822458,0.522003035,0.525037936,0.441578149,0.57814871,0.411229135,0.572078907,0.452200303,0.517450683,0.537177542,0.459787557,0.611532625,0.455235205,0.631259484,0.529590288,0.59939302,0.626707132,0.541729894,0.676783005,0.48861912,0.623672231,0.477996965,0.500758725,0.503793627,0.394537178,0.538694992,0.361153263,0.523520486,0.405159332,0.455235205,0.481031866,0.388467375,0.540212443,0.368740516,0.528072838,0.414264036,0.462822458,0.493171472,0.396054628,0.549317147,0.380880121,0.537177542,0.432473445,0.476479514,0.512898331,0.405159332,0.566009105,0.391502276,0.549317147,0.447647951,0.482549317,0.53414264,0.415781487,0.585735964,0.430955994,0.588770865,0.514415781,0.553869499,0.619119879,0.484066768,0.625189681,0.437025797,0.569044006,0.477996965,0.487101669,0.546282246,0.411229135,0.593323217,0.684370258,0.996965099,0.748103187,0.51138088,0.55538695,0.430955994,0.603945372,0.429438543,0.558421851,0.481031866,0.482549317,0.547799697,0.420333839,0.585735964,0.426403642,0.558421851,0.491654021,0.499241275,0.579666161,0.468892261,0.638846737,0.497723824,0.631259484,0.573596358,0.561456753,0.610015175,0.464339909,0.587253414,0.414264036,0.518968134,0.449165402,0.438543247,0.506828528,0.380880121,0.537177542,0.385432473,0.503793627,0.447647951,0.440060698,0.520485584,0.389984825,0.546282246,0.393019727,0.508345979,0.459787557,0.443095599,0.525037936,0.391502276,0.553869499,0.403641882,0.523520486,0.473444613,0.455235205,0.546282246,0.412746586,0.572078907,0.432473445,0.540212443,0.515933232,0.496206373,0.603945372,0.48861912,0.652503794,0.503793627,0.581183612,0.520485584,0.481031866,0.564491654,0.42185129,0.579666161,0.426403642,0.523520486,0.6676783,0.931714719,0.877086495,0.473444613,0.590288316,0.424886191,0.575113809,0.490136571,0.499241275,0.549317147,0.433990895,0.590288316,0.42185129,0.562974203,0.481031866,0.496206373,0.559939302,0.449165402,0.623672231,0.471927162,0.623672231,0.558421851,0.579666161,0.646433991,0.514415781,0.655538695,0.46737481,0.573596358,0.471927162,0.462822458,0.520485584,0.383915023,0.547799697,0.373292868,0.509863429,0.437025797,0.44461305,0.517450683,0.383915023,0.556904401,0.391502276,0.526555387,0.456752656,0.456752656,0.53262519,0.40060698,0.566009105,0.405159332,0.537177542,0.474962064,0.46585736,0.549317147,0.411229135,0.579666161,0.420333839,0.546282246,0.499241275,0.502276176,0.596358118,0.477996965,0.658573596,0.502276176,0.59939302,0.525037936,0.485584219,0.567526555,0.415781487,0.581183612,0.42185129,0.517450683,0.552352049,0.871016692,0.995447648,0.53262519,0.587253414,0.420333839,0.543247344,0.505311077,0.46737481,0.559939302,0.409711684,0.584218513,0.424886191,0.535660091,0.497723824,0.46737481,0.573596358,0.430955994,0.610015175,0.470409712,0.585735964,0.569044006,0.540212443,0.657056146,0.505311077,0.654021244,0.487101669,0.556904401,0.502276176,0.433990895,0.53262519,0.368740516,0.537177542,0.386949924,0.485584219,0.461305008,0.412746586,0.531107739,00.369300912,0.544072948,0.399696049,0.495440729,0.468085106,0.417933131,0.537993921,0.376899696,0.553191489,0.405775076,0.5,0.486322188,0.428571429,0.550151976,0.390577508,0.560790274,0.420972644,0.509118541,0.501519757,0.439209726,0.575987842,0.430091185,0.603343465,0.487841945,0.582066869,0.589665653,0.512158055,0.623100304,0.433130699,0.59118541,0.449848024,0.516717325,0.516717325,0.433130699,0.571428571,0.610942249,1,0.782674772,0.55775076,0.53343465,0.451367781,0.601823708,0.427051672,0.585106383,0.451367781,0.512158055,0.524316109,0.44224924,0.583586626,0.416413374,0.58662614,0.47112462,0.537993921,0.565349544,0.495440729,0.650455927,0.498480243,0.664133739,0.554711246,0.598784195,0.601823708,0.484802432,0.600303951,0.405775076,0.550151976,0.420972644,0.468085106,0.489361702,0.386018237,0.537993921,0.358662614,0.527355623,0.40881459,0.463525836,0.492401216,0.396656535,0.550151976,0.376899696,0.534954407,0.425531915,0.472644377,0.507598784,0.405775076,0.565349544,0.392097264,0.551671733,0.448328267,0.487841945,0.52887538,0.427051672,0.588145897,0.41337386,0.565349544,0.465045593,0.498480243,0.547112462,0.451367781,0.62006079,0.463525836,0.629179331,0.548632219,0.572948328,0.598784195,0.462006079,0.604863222,0.428571429,0.571428571,0.477203647,0.492401216,0.527355623,0.516717325,0.998480243,0.85106383,0.651975684,0.489361702,0.492401216,0.563829787,0.445288754,0.600303951,0.427051672,0.566869301,0.478723404,0.495440729,0.560790274,0.434650456,0.609422492,0.44224924,0.585106383,0.513677812,0.53343465,0.617021277,0.503039514,0.674772036,0.513677812,0.6443769,0.55775076,0.537993921,0.583586626,0.420972644,0.568389058,0.387537994,0.516717325,0.443768997,0.440729483,0.513677812,0.375379939,0.550151976,0.382978723,0.513677812,0.448328267,0.439209726,0.521276596,0.37993921,0.548632219,0.395136778,0.503039514,0.468085106,0.430091185,0.539513678,0.387537994,0.553191489,0.411854103,0.503039514,0.487841945,0.433130699,0.553191489,0.398176292,0.566869301,0.430091185,0.516717325,0.519756839,0.472644377,0.609422492,0.474164134,0.6443769,0.513677812,0.565349544,0.539513678,0.463525836,0.580547112,0.407294833,0.577507599,0.433130699,0.504559271,0.635258359,0.902735562,0.94224924,0.477203647,0.580547112,0.439209726,0.519756839,0.52887538,0.44224924,0.568389058,0.40881459,0.565349544,0.44224924,0.504559271,0.521276596,0.443768997,0.588145897,0.434650456,0.600303951,0.496960486,0.569908815,0.598784195,0.525835866,0.665653495,0.501519757,0.635258359,0.507598784,0.534954407,0.521276596,0.434650456,0.545592705,0.375379939,0.545592705,0.401215805,0.493920973,0.477203647,0.422492401,0.548632219,0.381458967,0.55775076,0.41337386,0.504559271,0.487841945,0.427051672,0.554711246,0.387537994,0.553191489,0.419452888,0.484802432,0.509118541,0.410334347,0.56231003,0.398176292,0.544072948,0.451367781,0.481762918,0.530395137,0.430091185,0.575987842,0.430091185,0.579027356,0.498480243,0.539513678,0.604863222,0.507598784,0.638297872,0.463525836,0.572948328,0.484802432,0.496960486,0.545592705,0.430091185,0.565349544,0.454407295,0.901215805,0.958966565,0.67325228,0.566869301,0.434650456,0.589665653,0.44224924,0.56231003,0.484802432,0.480243161,0.541033435,0.419452888,0.574468085,0.417933131,0.551671733,0.489361702,0.5,0.575987842,0.468085106,0.638297872,0.498480243,0.630699088,0.575987842,0.574468085,0.632218845,0.481762918,0.618541033,0.41337386,0.551671733,0.422492401,0.463525836,0.487841945,0.38449848,0.539513678,0.361702128,0.521276596,0.416413374,0.457446809,0.498480243,0.387537994,0.553191489,0.378419453,0.536474164,0.433130699,0.462006079,0.512158055,0.402735562,0.56231003,0.390577508,0.547112462,0.449848024,0.478723404,0.539513678,0.417933131,0.580547112,0.434650456,0.541033435,0.498480243,0.472644377,0.565349544,0.436170213,0.613981763,0.474164134,0.598784195,0.579027356,0.547112462,0.623100304,0.455927052,0.600303951,0.445288754,0.541033435,0.503039514,0.462006079,0.548632219,0.492401216,0.995440729,0.892097264,0.6443769,0.519756839,0.469604863,0.577507599,0.430091185,0.583586626,0.439209726,0.531914894,0.504559271,0.454407295,0.563829787,0.417933131,0.585106383,0.449848024,0.548632219,0.542553191,0.5,0.626139818,0.492401216,0.661094225,0.534954407,0.612462006,0.588145897,0.510638298,0.597264438,0.419452888,0.55775076,0.411854103,0.486322188,0.469604863,0.40881459,0.527355623,0.369300912,0.52887538,0.398176292,0.477203647,0.474164134,0.414893617,0.534954407,0.375379939,0.536474164,0.407294833,0.480243161,0.480243161,0.41337386,0.545592705,0.386018237,0.545592705,0.425531915,0.492401216,0.504559271,0.431610942,0.565349544,0.40881459,0.569908815,0.454407295,0.530395137,0.548632219,0.486322188,0.636778116,0.490881459,0.633738602,0.498480243,0.531914894,0.536474164,0.448328267,0.580547112,0.419452888,0.563829787,0.449848024,0.70212766,1,0.799392097,0.629179331,0.428571429,0.577507599,0.478723404,0.524316109,0.544072948,0.448328267,0.585106383,0.417933131,0.568389058,0.460486322,0.507598784,0.541033435,0.451367781,0.606382979,0.458966565,0.617021277,0.536474164,0.582066869,0.635258359,0.534954407,0.670212766,0.492401216,0.607902736,0.489361702,0.492401216,0.518237082,0.401215805,0.547112462,0.373860182,0.521276596,0.424012158,0.452887538,0.5,0.390577508,0.548632219,0.382978723,0.527355623,0.431610942,0.455927052,0.509118541,0.392097264,0.551671733,0.389057751,0.527355623,0.445288754,0.458966565,0.519756839,0.401215805,0.565349544,0.398176292,0.534954407,0.462006079,0.487841945,0.559270517,0.452887538,0.629179331,0.480243161,0.603343465,0.513677812,0.490881459,0.553191489,0.422492401,0.575987842,0.416413374,0.536474164,0.462006079,0.632218845,0.998480243,0.794832827,0.638297872,0.430091185,0.547112462,0.5,0.493920973,0.566869301,0.433130699,0.592705167,0.439209726,0.554711246,0.501519757,0.492401216,0.579027356,0.452887538,0.62006079,0.474164134,0.598784195,0.56231003,0.55775076,0.653495441,0.518237082,0.676291793,0.507598784,0.588145897,0.513677812,0.46656535,0.539513678,0.386018237,0.544072948,0.38449848,0.495440729,0.455927052,0.419452888,0.525835866,0.378419453,0.542553191,0.396656535,0.503039514,0.465045593,0.431610942,0.534954407,0.38449848,0.553191489,0.404255319,0.507598784,0.475683891,0.439209726,0.544072948,0.396656535,0.56231003,0.420972644,0.521276596,0.495440729,0.452887538,0.572948328,0.434650456,0.606382979,0.489361702,0.588145897,0.569908815,0.498480243,0.588145897,0.416413374,0.579027356,0.433130699,0.518237082,0.5,0.427051672,0.655015198,0.843465046,0.989361702,0.537993921,0.521276596,0.509118541,0.458966565,0.582066869,0.420972644,0.577507599,0.440729483,0.515197568,0.516717325,0.448328267,0.575987842,0.422492401,0.59118541,0.469604863,0.553191489,0.565349544,0.510638298,0.650455927,0.507598784,0.668693009,0.542553191,0.588145897,0.571428571,0.469604863,0.571428571,0.389057751,0.539513678,0.40881459,0.46656535,0.480243161,0.398176292,0.530395137,0.370820669,0.531914894,0.411854103,0.472644377,0.490881459,0.407294833,0.542553191,0.378419453,0.536474164,0.419452888,0.478723404,0.501519757,0.416413374,0.560790274,0.398176292,0.548632219,0.439209726,0.487841945,0.516717325,0.428571429,0.575987842,0.416413374,0.569908815,0.46656535,0.518237082,0.56231003,0.468085106,0.633738602,0.492401216,0.6443769,0.524316109,0.536474164,0.551671733,0.440729483,0.583586626,0.414893617,0.559270517,0.445288754,0.531914894,0.896656535,0.925531915,0.749240122,0.430091185,0.569908815,0.481762918,0.518237082,0.556231003,0.439209726,0.58662614,0.419452888,0.55775076,0.47112462,0.492401216,0.548632219,0.440729483,0.601823708,0.451367781,0.603343465,0.534954407,0.56231003,0.630699088,0.525835866,0.679331307,0.509118541,0.618541033,0.516717325,0.492401216,0.53343465,0.393617021,0.547112462,0.376899696,0.510638298,0.433130699,0.440729483,0.504559271,0.381458967,0.544072948,0.386018237,00.512158055,0.448328267,0.449848024,0.518237082,0.392097264,0.55775076,0.396656535,0.522796353,0.458966565,0.452887538,0.530395137,0.402735562,0.565349544,0.410334347,0.536474164,0.480243161,0.474164134,0.559270517,0.440729483,0.612462006,0.469604863,0.609422492,0.574468085,0.550151976,0.617021277,0.458966565,0.606382979,0.445288754,0.551671733,0.504559271,0.478723404,0.551671733,0.513677812,1,0.864741641,0.647416413,0.530395137,0.480243161,0.585106383,0.448328267,0.603343465,0.446808511,0.548632219,0.510638298,0.475683891,0.579027356,0.430091185,0.601823708,0.455927052,0.574468085,0.539513678,0.531914894,0.636778116,0.510638298,0.693009119,0.531914894,0.664133739,0.565349544,0.550151976,0.589665653,0.428571429,0.582066869,0.392097264,0.527355623,0.443768997,0.443768997,0.515197568,0.376899696,0.556231003,0.38449848,0.501519757,0.469604863,0.417933131,0.534954407,0.37993921,0.545592705,0.405775076,0.496960486,0.484802432,0.428571429,0.547112462,0.393617021,0.55775076,0.425531915,0.501519757,0.498480243,0.457446809,0.58662614,0.44224924,0.623100304,0.509118541,0.569908815,0.554711246,0.457446809,0.574468085,0.410334347,0.560790274,0.43768997,0.496960486,0.490881459,0.530395137,0.984802432,0.816109422,0.639817629,0.452887538,0.492401216,0.521276596,0.452887538,0.572948328,0.417933131,0.568389058,0.452887538,0.506079027,0.530395137,0.445288754,0.588145897,0.43768997,0.59118541,0.492401216,0.551671733,0.59118541,0.513677812,0.659574468,0.510638298,0.645896657,0.52887538,0.547112462,0.550151976,0.431610942,0.553191489,0.378419453,0.52887538,0.411854103,0.458966565,0.483282675,0.389057751,0.541033435,0.364741641,0.548632219,0.396656535,0.496960486,0.480243161,0.419452888,0.548632219,0.37993921,0.559270517,0.410334347,0.506079027,0.490881459,0.427051672,0.559270517,0.38449848,0.566869301,0.431610942,0.527355623,0.536474164,0.472644377,0.630699088,0.47112462,0.624620061,0.484802432,0.518237082,0.525835866,0.431610942,0.575987842,0.395136778,0.563829787,0.424012158,0.668693009,0.980243161,0.832826748,0.610942249,0.390577508,0.569908815,0.449848024,0.510638298,0.522796353,0.419452888,0.575987842,0.404255319,0.547112462,0.462006079,0.487841945,0.550151976,0.436170213,0.607902736,0.451367781,0.607902736,0.542553191,0.565349544,0.639817629,0.521276596,0.67325228,0.496960486,0.601823708,0.501519757,0.478723404,0.530395137,0.389057751,0.548632219,0.376899696,0.506079027,0.440729483,0.433130699,0.515197568,0.376899696,0.548632219,0.382978723,0.512158055,0.449848024,0.439209726,0.522796353,0.38449848,0.553191489,0.396656535,0.521276596,0.46656535,0.452887538,0.541033435,0.404255319,0.574468085,0.420972644,0.539513678,0.493920973,0.472644377,0.569908815,0.434650456,0.617021277,0.472644377,0.606382979,0.579027356,0.556231003,0.636778116,0.47112462,0.630699088,0.443768997,0.585106383,0.490881459,0.504559271,0.553191489,0.452887538,0.90881459,0.934650456,0.800911854,0.53343465,0.495440729,0.597264438,0.455927052,0.609422492,0.446808511,0.556231003,0.512158055,0.475683891,0.582066869,0.433130699,0.601823708,0.458966565,0.56231003,0.544072948,0.513677812,0.639817629,0.501519757,0.679331307,0.545592705,0.638297872,0.609422492,0.53343465,0.618541033,0.430091185,0.574468085,0.41337386,0.495440729,0.474164134,0.411854103,0.534954407,0.369300912,0.542553191,0.387537994,0.498480243,0.462006079,0.420972644,0.536474164,0.370820669,0.554711246,0.396656535,0.503039514,0.46656535,0.436170213,0.539513678,0.390577508,0.566869301,0.402735562,0.521276596,0.478723404,0.448328267,0.553191489,0.399696049,0.582066869,0.428571429,0.554711246,0.524316109,0.496960486,0.621580547,0.483282675,0.638297872,0.477203647,0.550151976,0.507598784,0.454407295,0.566869301,0.399696049,0.569908815,0.41337386,0.699088146,0.969604863,0.813069909,0.618541033,0.40881459,0.580547112,0.440729483,0.537993921,0.506079027,0.448328267,0.569908815,0.402735562,0.575987842,0.434650456,0.527355623,0.515197568,0.460486322,0.598784195,0.43768997,0.626139818,0.496960486,0.597264438,0.594224924,0.537993921,0.658054711,0.477203647,0.624620061,0.458966565,0.515197568,0.492401216,0.40881459,0.537993921,0.363221884,0.534954407,0.393617021,0.475683891,0.47112462,0.398176292,0.539513678,0.364741641,0.537993921,0.404255319,0.477203647,0.480243161,0.402735562,0.548632219,0.369300912,0.547112462,0.410334347,0.481762918,0.495440729,0.410334347,0.55775076,0.389057751,0.577507599,0.458966565,0.531914894,0.568389058,0.492401216,0.627659574,0.433130699,0.571428571,0.44224924,0.490881459,0.513677812,0.41337386,0.565349544,0.376899696,0.696048632,0.895136778,0.858662614,0.582066869,0.417933131,0.569908815,0.40881459,0.577507599,0.455927052,0.5,0.534954407,0.428571429,0.589665653,0.411854103,0.577507599,0.47112462,0.515197568,0.563829787,0.468085106,0.641337386,0.480243161,0.647416413,0.553191489,0.588145897,0.629179331,0.490881459,0.626139818,0.419452888,0.550151976,0.439209726,0.452887538,0.498480243,0.372340426,0.544072948,0.357142857,0.516717325,0.425531915,0.446808511,0.504559271,0.37993921,0.550151976,0.372340426,0.522796353,0.436170213,0.449848024,0.516717325,0.389057751,0.560790274,0.382978723,0.534954407,0.449848024,0.458966565,0.52887538,0.404255319,0.595744681,0.428571429,0.588145897,0.525835866,0.541033435,0.601823708,0.443768997,0.589665653,0.410334347,0.541033435,0.465045593,0.462006079,0.53343465,0.398176292,0.773556231,0.889057751,0.867781155,0.510638298,0.468085106,0.554711246,0.425531915,0.597264438,0.419452888,0.547112462,0.484802432,0.468085106,0.559270517,0.411854103,0.597264438,0.430091185,0.56231003,0.518237082,0.504559271,0.618541033,0.481762918,0.670212766,0.519756839,0.639817629,0.58662614,0.534954407,0.613981763,0.424012158,0.585106383,0.401215805,0.503039514,0.457446809,0.422492401,0.52887538,0.364741641,0.554711246,0.386018237,0.503039514,0.465045593,0.425531915,0.537993921,0.373860182,0.554711246,0.396656535,0.506079027,0.47112462,0.425531915,0.550151976,0.38449848,0.566869301,0.410334347,0.519756839,0.495440729,0.44224924,0.569908815,0.404255319,0.571428571,0.462006079,0.539513678,0.56231003,0.496960486,0.658054711,0.481762918,0.621580547,0.480243161,0.516717325,0.534954407,0.430091185,0.579027356,0.401215805,0.539513678,0.52887538,0.914893617,0.96656535,0.527355623,0.589665653,0.411854103,0.572948328,0.477203647,0.5,0.542553191,0.428571429,0.582066869,0.40881459,0.565349544,0.462006079,0.515197568,0.542553191,0.463525836,0.623100304,0.457446809,0.638297872,0.53343465,0.597264438,0.633738602,0.527355623,0.668693009,0.465045593,0.601823708,0.463525836,0.477203647,0.512158055,0.37993921,0.550151976,0.360182371,0.519756839,0.419452888,0.443768997,0.510638298,0.372340426,0.550151976,0.370820669,0.527355623,0.434650456,0.445288754,0.513677812,0.378419453,0.55775076,0.37993921,0.525835866,0.452887538,0.452887538,0.536474164,0.393617021,0.574468085,0.402735562,0.541033435,0.472644377,0.465045593,0.554711246,0.420972644,0.609422492,0.445288754,0.592705167,0.551671733,0.534954407,0.612462006,0.440729483,0.595744681,0.424012158,0.541033435,0.490881459,0.457446809,0.544072948,0.431610942,0.910334347,0.899696049,0.724924012,0.518237082,0.460486322,0.572948328,0.425531915,0.59118541,0.428571429,0.534954407,0.495440729,0.455927052,0.569908815,0.411854103,0.589665653,0.439209726,0.553191489,0.531914894,0.493920973,0.626139818,0.478723404,0.671732523,0.513677812,0.642857143,0.563829787,0.542553191,0.594224924,0.422492401,0.580547112,0.382978723,0.524316109,0.44224924,0.436170213,0.516717325,0.363221884,0.551671733,0.372340426,0.512158055,0.44224924,0.433130699,0.527355623,0.372340426,0.554711246,0.376899696,0.512158055,0.449848024,0.434650456,0.530395137,0.375379939,0.566869301,0.393617021,0.527355623,0.469604863,0.448328267,0.551671733,0.393617021,0.582066869,0.416413374,0.559270517,0.513677812,0.504559271,0.630699088,0.475683891,0.639817629,0.451367781,0.553191489,00.498480243,0.458966565,0.569908815,0.399696049,0.572948328,0.436170213,0.828267477,0.975683891,0.680851064,0.603343465,0.401215805,0.59118541,0.457446809,0.541033435,0.527355623,0.455927052,0.59118541,0.40881459,0.600303951,0.445288754,0.545592705,0.536474164,0.475683891,0.621580547,0.455927052,0.64893617,0.525835866,0.609422492,0.624620061,0.551671733,0.67781155,0.486322188,0.632218845,0.472644377,0.509118541,0.513677812,0.402735562,0.553191489,0.369300912,0.536474164,0.414893617,0.46656535,0.501519757,0.395136778,0.55775076,0.376899696,0.542553191,0.431610942,0.469604863,0.513677812,0.398176292,0.56231003,0.382978723,0.545592705,0.44224924,0.472644377,0.525835866,0.404255319,0.577507599,0.395136778,0.554711246,0.460486322,0.498480243,0.568389058,0.449848024,0.632218845,0.480243161,0.624620061,0.519756839,0.509118541,0.55775076,0.420972644,0.585106383,0.404255319,0.547112462,0.451367781,0.534954407,0.933130699,0.867781155,0.647416413,0.486322188,0.449848024,0.604863222,0.433130699,0.516717325,0.554711246,0.40881459,0.574468085,0.484802432,0.460486322,0.601823708,0.44224924,0.548632219,0.589665653,0.475683891,0.651975684,0.571428571,0.551671733,0.683890578,0.507598784,0.571428571,0.569908815,0.401215805,0.548632219,0.43768997,0.411854103,0.539513678,0.370820669,0.475683891,0.495440729,0.367781155,0.536474164,0.436170213,0.417933131,0.545592705,0.381458967,0.489361702,0.506079027,0.378419453,0.548632219,0.43768997,0.434650456,0.55775076,0.395136778,0.512158055,0.522796353,0.404255319,0.569908815,0.465045593,0.483282675,0.607902736,0.465045593,0.594224924,0.595744681,0.460486322,0.595744681,0.46656535,0.462006079,0.572948328,0.404255319,0.509118541,0.539513678,0.755319149,1,0.59118541,0.47112462,0.579027356,0.425531915,0.551671733,0.531914894,0.425531915,0.583586626,0.457446809,0.47112462,0.580547112,0.417933131,0.550151976,0.544072948,0.455927052,0.630699088,0.519756839,0.554711246,0.668693009,0.510638298,0.624620061,0.580547112,0.451367781,0.582066869,0.430091185,0.443768997,0.531914894,0.363221884,0.501519757,0.47112462,0.378419453,0.544072948,0.405775076,0.446808511,0.541033435,0.373860182,0.509118541,0.477203647,0.392097264,0.554711246,0.411854103,0.455927052,0.548632219,0.386018237,0.525835866,0.5,0.414893617,0.575987842,0.436170213,0.481762918,0.566869301,0.419452888,0.580547112,0.545592705,0.489361702,0.661094225,0.518237082,0.544072948,0.59118541,0.422492401,0.56231003,0.507598784,0.436170213,0.571428571,0.474164134,0.876899696,0.990881459,0.501519757,0.563829787,0.5,0.448328267,0.598784195,0.440729483,0.490881459,0.55775076,0.405775076,0.556231003,0.498480243,0.439209726,0.597264438,0.454407295,0.52887538,0.609422492,0.47112462,0.632218845,0.577507599,0.522796353,0.656534954,0.481762918,0.522796353,0.553191489,0.382978723,0.531914894,0.457446809,0.404255319,0.548632219,0.392097264,0.465045593,0.518237082,0.369300912,0.53343465,0.462006079,0.410334347,0.55775076,0.399696049,0.483282675,0.527355623,0.382978723,0.544072948,0.463525836,0.425531915,0.569908815,0.411854103,0.5,0.544072948,0.405775076,0.565349544,0.484802432,0.469604863,0.613981763,0.472644377,0.582066869,0.629179331,0.477203647,0.610942249,0.503039514,0.465045593,0.59118541,0.425531915,0.512158055,0.534954407,0.594224924,1,0.749240122,0.474164134,0.58662614,0.430091185,0.542553191,0.55775076,0.420972644,0.583586626,0.483282675,0.465045593,0.595744681,0.431610942,0.541033435,0.566869301,0.454407295,0.626139818,0.541033435,0.541033435,0.67325228,0.521276596,0.617021277,0.612462006,0.458966565,0.58662614,0.460486322,0.431610942,0.545592705,0.373860182,0.483282675,0.490881459,0.369300912,0.537993921,0.424012158,0.425531915,0.542553191,0.381458967,0.495440729,0.498480243,0.381458967,0.554711246,0.439209726,0.440729483,0.560790274,0.395136778,0.518237082,0.513677812,0.404255319,0.569908815,0.452887538,0.462006079,0.569908815,0.410334347,0.53343465,0.52887538,0.431610942,0.610942249,0.504559271,0.536474164,0.661094225,0.484802432,0.583586626,0.550151976,0.434650456,0.589665653,0.460486322,0.47112462,0.559270517,0.556231003,0.992401216,0.82674772,0.440729483,0.583586626,0.463525836,0.492401216,0.580547112,0.414893617,0.544072948,0.518237082,0.420972644,0.58662614,0.458966565,0.489361702,0.589665653,0.440729483,0.588145897,0.579027356,0.501519757,0.670212766,0.548632219,0.575987842,0.6443769,0.458966565,0.566869301,0.509118541,0.405775076,0.554711246,0.40881459,0.443768997,0.530395137,0.366261398,0.506079027,0.474164134,0.390577508,0.554711246,0.40881459,0.452887538,0.531914894,0.373860182,0.518237082,0.478723404,0.401215805,0.560790274,0.420972644,0.468085106,0.545592705,0.390577508,0.542553191,0.498480243,0.424012158,0.580547112,0.43768997,0.495440729,0.585106383,0.439209726,0.600303951,0.566869301,0.506079027,0.638297872,0.47112462,0.509118541,0.566869301,0.407294833,0.551671733,0.490881459,0.422492401,0.794832827,0.919452888,0.732522796,0.580547112,0.41337386,0.575987842,0.519756839,0.443768997,0.589665653,0.434650456,0.496960486,0.55775076,0.41337386,0.566869301,0.507598784,0.465045593,0.617021277,0.484802432,0.566869301,0.636778116,0.510638298,0.665653495,0.589665653,0.513677812,0.629179331,0.443768997,0.490881459,0.524316109,0.363221884,0.521276596,0.44224924,0.398176292,0.537993921,0.37993921,0.462006079,0.509118541,0.363221884,0.52887538,0.445288754,0.405775076,0.544072948,0.38449848,0.474164134,0.512158055,0.375379939,0.539513678,0.454407295,0.420972644,0.560790274,0.402735562,0.489361702,0.530395137,0.396656535,0.566869301,0.495440729,0.478723404,0.636778116,0.492401216,0.574468085,0.583586626,0.425531915,0.577507599,0.475683891,0.440729483,0.574468085,0.393617021,0.575987842,0.954407295,0.781155015,0.62006079,0.477203647,0.452887538,0.600303951,0.431610942,0.53343465,0.548632219,0.420972644,0.58662614,0.484802432,0.47112462,0.603343465,0.443768997,0.566869301,0.59118541,0.478723404,0.661094225,0.563829787,0.563829787,0.682370821,0.501519757,0.585106383,0.559270517,0.411854103,0.559270517,0.433130699,0.422492401,0.544072948,0.366261398,0.487841945,0.492401216,0.375379939,0.545592705,0.425531915,0.43768997,0.548632219,0.376899696,0.512158055,0.498480243,0.389057751,0.566869301,0.425531915,0.451367781,0.553191489,0.387537994,0.537993921,0.507598784,0.414893617,0.612462006,0.454407295,0.541033435,0.627659574,0.478723404,0.629179331,0.536474164,0.446808511,0.606382979,0.428571429,0.503039514,0.559270517,0.37993921,0.711246201,0.960486322,0.756838906,0.617021277,0.420972644,0.504559271,0.577507599,0.404255319,0.574468085,0.489361702,0.44224924,0.597264438,0.428571429,0.519756839,0.569908815,0.420972644,0.604863222,0.53343465,0.503039514,0.670212766,0.512158055,0.601823708,0.641337386,0.472644377,0.61550152,0.5,0.434650456,0.566869301,0.382978723,0.472644377,0.509118541,0.354103343,0.536474164,0.445288754,0.40881459,0.55775076,0.381458967,0.484802432,0.516717325,0.372340426,0.548632219,0.452887538,0.425531915,0.569908815,0.398176292,0.501519757,0.530395137,0.38449848,0.563829787,0.463525836,0.457446809,0.607902736,0.449848024,0.577507599,0.609422492,0.448328267,0.598784195,0.47112462,0.445288754,0.579027356,0.395136778,0.509118541,0.522796353,0.566869301,1,0.740121581,0.462006079,0.58662614,0.416413374,0.545592705,0.548632219,0.41337386,0.589665653,0.475683891,0.46656535,0.600303951,0.424012158,0.554711246,0.565349544,0.451367781,0.6443769,0.539513678,0.550151976,0.686930091,0.518237082,0.632218845,0.613981763,0.460486322,0.600303951,0.451367781,0.43768997,0.548632219,0.363221884,0.492401216,0.486322188,0.360182371,0.544072948,0.414893617,0.425531915,0.539513678,0.361702128,0.5,0.487841945,0.373860182,0.553191489,0.419452888,0.439209726,0.559270517,0.376899696,0.519756839,0.504559271,0.393617021,0.575987842,0.43768997,0.46656535,0.577507599,0.401215805,0.548632219,00.543378995,0.449010654,0.643835616,0.522070015,0.557077626,0.639269406,0.442922374,0.566210046,0.534246575,0.424657534,0.598173516,0.447488584,0.477929985,0.803652968,0.899543379,0.782343988,0.540334855,0.420091324,0.602739726,0.459665145,0.490106545,0.582952816,0.403348554,0.558599696,0.514459665,0.426179604,0.602739726,0.458143075,0.508371385,0.613394216,0.453576865,0.616438356,0.593607306,0.515981735,0.687975647,0.529680365,0.552511416,0.611872146,0.406392694,0.540334855,0.476407915,0.382039574,0.555555556,0.392694064,0.450532725,0.534246575,0.360730594,0.525114155,0.470319635,0.392694064,0.563165906,0.406392694,0.465753425,0.538812785,0.374429224,0.535768645,0.479452055,0.401826484,0.570776256,0.414003044,0.477929985,0.554033486,0.385083714,0.554033486,0.494672755,0.424657534,0.590563166,0.432267884,0.505327245,0.587519026,0.433789954,0.619482496,0.564687976,0.512937595,0.652968037,0.467275495,0.520547945,0.570776256,0.403348554,0.569254186,0.488584475,0.424657534,0.809741248,0.908675799,0.727549467,0.589041096,0.397260274,0.579908676,0.509893455,0.444444444,0.598173516,0.424657534,0.509893455,0.560121766,0.406392694,0.584474886,0.509893455,0.465753425,0.631659056,0.470319635,0.576864536,0.634703196,0.496194825,0.672754947,0.578386606,0.515981735,0.639269406,0.435312024,0.503805175,0.528158295,0.368340944,0.537290715,0.452054795,0.395738204,0.557077626,0.392694064,0.473363775,0.529680365,0.369863014,0.535768645,0.464231355,0.403348554,0.564687976,0.401826484,0.473363775,0.535768645,0.377473364,0.538812785,0.473363775,0.409436834,0.567732116,0.409436834,0.482496195,0.546423135,0.407914764,0.581430746,0.528158295,0.490106545,0.652968037,0.487062405,0.532724505,0.569254186,0.410958904,0.563165906,0.491628615,0.423135464,0.563165906,0.537290715,0.95738204,0.876712329,0.441400304,0.564687976,0.493150685,0.458143075,0.598173516,0.435312024,0.506849315,0.557077626,0.407914764,0.569254186,0.500761035,0.452054795,0.610350076,0.461187215,0.550989346,0.617960426,0.485540335,0.652968037,0.587519026,0.537290715,0.659056317,0.476407915,0.523592085,0.547945205,0.380517504,0.535768645,0.447488584,0.403348554,0.546423135,0.382039574,0.473363775,0.515981735,0.374429224,0.537290715,0.452054795,0.414003044,0.558599696,0.394216134,0.484018265,0.522070015,0.385083714,0.547945205,0.462709285,0.430745814,0.572298326,0.409436834,0.503805175,0.537290715,0.403348554,0.569254186,0.484018265,0.474885845,0.613394216,0.477929985,0.587519026,0.617960426,0.464231355,0.601217656,0.487062405,0.453576865,0.579908676,0.414003044,0.502283105,0.563165906,0.761035008,1,0.595129376,0.455098935,0.587519026,0.441400304,0.537290715,0.549467275,0.417047184,0.578386606,0.474885845,0.461187215,0.589041096,0.432267884,0.540334855,0.563165906,0.455098935,0.630136986,0.541856925,0.546423135,0.675799087,0.517503805,0.610350076,0.596651446,0.447488584,0.579908676,0.449010654,0.426179604,0.543378995,0.375951294,0.488584475,0.493150685,0.375951294,0.544901065,0.429223744,0.432267884,0.550989346,0.380517504,0.503805175,0.502283105,0.385083714,0.552511416,0.433789954,0.439878234,0.550989346,0.389649924,0.515981735,0.509893455,0.403348554,0.570776256,0.452054795,0.459665145,0.567732116,0.406392694,0.534246575,0.541856925,0.445966514,0.625570776,0.519025875,0.538812785,0.624048706,0.436834094,0.549467275,0.526636225,0.417047184,0.582952816,0.435312024,0.488584475,0.815829528,0.901065449,0.767123288,0.508371385,0.447488584,0.619482496,0.444444444,0.517503805,0.564687976,0.401826484,0.572298326,0.494672755,0.444444444,0.601217656,0.439878234,0.534246575,0.590563166,0.450532725,0.637747336,0.567732116,0.531202435,0.687975647,0.508371385,0.570776256,0.589041096,0.401826484,0.555555556,0.445966514,0.397260274,0.549467275,0.365296804,0.467275495,0.505327245,0.351598174,0.537290715,0.435312024,0.400304414,0.549467275,0.372907154,0.476407915,0.509893455,0.362252664,0.543378995,0.444444444,0.418569254,0.567732116,0.388127854,0.497716895,0.528158295,0.386605784,0.570776256,0.462709285,0.442922374,0.590563166,0.410958904,0.525114155,0.552511416,0.432267884,0.614916286,0.529680365,0.529680365,0.669710807,0.470319635,0.561643836,0.564687976,0.418569254,0.595129376,0.476407915,0.450532725,0.616438356,0.764079148,0.97869102,0.660578387,0.423135464,0.587519026,0.484018265,0.477929985,0.602739726,0.417047184,0.537290715,0.546423135,0.417047184,0.596651446,0.480974125,0.477929985,0.617960426,0.450532725,0.589041096,0.611872146,0.496194825,0.686453577,0.561643836,0.554033486,0.652968037,0.445966514,0.544901065,0.520547945,0.380517504,0.554033486,0.418569254,0.429223744,0.549467275,0.365296804,0.503805175,0.493150685,0.372907154,0.555555556,0.424657534,0.433789954,0.550989346,0.369863014,0.512937595,0.499238965,0.389649924,0.569254186,0.429223744,0.453576865,0.566210046,0.391171994,0.535768645,0.514459665,0.406392694,0.593607306,0.455098935,0.502283105,0.608828006,0.459665145,0.619482496,0.593607306,0.468797565,0.614916286,0.459665145,0.484018265,0.581430746,0.400304414,0.532724505,0.532724505,0.762557078,1,0.560121766,0.487062405,0.570776256,0.414003044,0.563165906,0.531202435,0.423135464,0.589041096,0.464231355,0.480974125,0.593607306,0.423135464,0.569254186,0.557077626,0.456621005,0.645357686,0.526636225,0.554033486,0.675799087,0.503805175,0.634703196,0.570776256,0.453576865,0.593607306,0.423135464,0.461187215,0.537290715,0.357686454,0.517503805,0.462709285,0.380517504,0.555555556,0.395738204,0.456621005,0.541856925,0.368340944,0.534246575,0.476407915,0.401826484,0.570776256,0.409436834,0.474885845,0.550989346,0.383561644,0.555555556,0.490106545,0.424657534,0.595129376,0.429223744,0.509893455,0.593607306,0.436834094,0.625570776,0.573820396,0.502283105,0.645357686,0.450532725,0.512937595,0.569254186,0.400304414,0.567732116,0.477929985,0.477929985,0.98630137,0.872146119,0.576864536,0.566210046,0.410958904,0.593607306,0.512937595,0.449010654,0.604261796,0.442922374,0.509893455,0.573820396,0.415525114,0.589041096,0.517503805,0.470319635,0.639269406,0.490106545,0.585996956,0.652968037,0.509893455,0.675799087,0.573820396,0.500761035,0.624048706,0.429223744,0.494672755,0.525114155,0.363774734,0.537290715,0.439878234,0.397260274,0.554033486,0.372907154,0.476407915,0.515981735,0.365296804,0.544901065,0.444444444,0.410958904,0.563165906,0.388127854,0.488584475,0.523592085,0.371385084,0.557077626,0.453576865,0.423135464,0.573820396,0.407914764,0.491628615,0.554033486,0.401826484,0.547945205,0.502283105,0.432267884,0.605783866,0.465753425,0.543378995,0.628614916,0.493150685,0.622526636,0.544901065,0.449010654,0.595129376,0.435312024,0.496194825,0.555555556,0.389649924,0.722983257,0.98021309,0.773211568,0.604261796,0.435312024,0.508371385,0.576864536,0.414003044,0.566210046,0.496194825,0.436834094,0.587519026,0.433789954,0.506849315,0.569254186,0.436834094,0.601217656,0.541856925,0.505327245,0.666666667,0.526636225,0.608828006,0.654490107,0.488584475,0.619482496,0.514459665,0.441400304,0.573820396,0.374429224,0.499238965,0.491628615,0.360730594,0.544901065,0.412480974,0.420091324,0.544901065,0.363774734,0.502283105,0.496194825,0.372907154,0.557077626,0.418569254,0.433789954,0.557077626,0.375951294,0.517503805,0.505327245,0.389649924,0.570776256,0.438356164,0.455098935,0.573820396,0.392694064,0.537290715,0.525114155,0.412480974,0.592085236,0.464231355,0.505327245,0.624048706,0.468797565,0.621004566,0.592085236,0.465753425,0.617960426,0.465753425,0.485540335,0.587519026,0.404870624,0.535768645,0.584474886,0.853881279,0.99847793,0.529680365,0.494672755,0.593607306,0.430745814,0.572298326,0.528158295,0.424657534,0.598173516,0.445966514,0.485540335,0.584474886,0.414003044,0.570776256,0.544901065,0.462709285,0.648401826,0.520547945,0.573820396,0.671232877,0.502283105,0.631659056,0.569254186,0.452054795,0.587519026,0.417047184,0.450532725,0.531202435,0.354642314,0.508371385,0.462709285,0.375951294,0.552511416,0.392694064,0.449010654,00.532428356,0.358974359,0.520361991,0.472096531,0.392156863,0.561085973,0.405731523,0.466063348,0.54147813,0.37254902,0.538461538,0.4826546,0.404223228,0.576168929,0.416289593,0.479638009,0.561085973,0.402714932,0.573152338,0.53092006,0.478129713,0.653092006,0.470588235,0.514328808,0.567119155,0.395173454,0.546003017,0.502262443,0.404223228,0.558069382,0.616892911,0.929110106,0.80693816,0.431372549,0.521870287,0.514328808,0.425339367,0.57918552,0.447963801,0.466063348,0.568627451,0.408748115,0.539969834,0.524886878,0.43438914,0.604826546,0.484162896,0.527903469,0.633484163,0.490196078,0.628959276,0.616892911,0.514328808,0.65158371,0.494720965,0.488687783,0.556561086,0.377073906,0.502262443,0.475113122,0.378582202,0.544494721,0.401206637,0.435897436,0.529411765,0.366515837,0.509803922,0.478129713,0.390648567,0.553544495,0.411764706,0.450980392,0.532428356,0.378582202,0.518853695,0.485671192,0.402714932,0.562594268,0.425339367,0.467571644,0.55505279,0.408748115,0.567119155,0.539969834,0.475113122,0.641025641,0.494720965,0.515837104,0.570135747,0.405731523,0.54147813,0.496229261,0.411764706,0.553544495,0.527903469,0.92760181,0.912518854,0.44494721,0.574660633,0.472096531,0.470588235,0.604826546,0.42081448,0.533936652,0.552036199,0.411764706,0.592760181,0.488687783,0.475113122,0.621417798,0.450980392,0.580693816,0.607843137,0.488687783,0.67571644,0.570135747,0.55505279,0.665158371,0.467571644,0.546003017,0.538461538,0.380090498,0.546003017,0.422322775,0.408748115,0.542986425,0.363499246,0.484162896,0.494720965,0.369532428,0.549019608,0.428355958,0.425339367,0.552036199,0.37254902,0.49321267,0.505279035,0.377073906,0.553544495,0.432880845,0.431372549,0.559577677,0.384615385,0.515837104,0.529411765,0.426847662,0.615384615,0.511312217,0.529411765,0.647058824,0.449472097,0.549019608,0.535444947,0.408748115,0.583710407,0.447963801,0.440422323,0.633484163,0.80693816,0.969834087,0.594268477,0.402714932,0.58974359,0.46907994,0.481146305,0.588235294,0.402714932,0.546003017,0.523378582,0.414781297,0.598793363,0.463046757,0.490196078,0.609351433,0.443438914,0.600301659,0.594268477,0.499245852,0.681749623,0.546003017,0.547511312,0.633484163,0.428355958,0.536953243,0.499245852,0.380090498,0.553544495,0.405731523,0.431372549,0.535444947,0.360482655,0.508295626,0.478129713,0.375565611,0.55505279,0.407239819,0.44494721,0.547511312,0.368024133,0.520361991,0.485671192,0.389140271,0.56561086,0.413273002,0.457013575,0.55505279,0.377073906,0.533936652,0.497737557,0.405731523,0.583710407,0.44494721,0.50678733,0.61387632,0.461538462,0.615384615,0.577677225,0.44494721,0.58974359,0.467571644,0.455505279,0.573152338,0.405731523,0.50678733,0.656108597,0.877828054,0.901960784,0.49321267,0.460030166,0.586726998,0.43438914,0.536953243,0.535444947,0.416289593,0.577677225,0.466063348,0.467571644,0.585218703,0.429864253,0.553544495,0.559577677,0.464555053,0.641025641,0.539969834,0.561085973,0.678733032,0.494720965,0.644042232,0.550527903,0.452488688,0.591251885,0.405731523,0.464555053,0.526395173,0.354449472,0.521870287,0.457013575,0.384615385,0.553544495,0.384615385,0.461538462,0.526395173,0.363499246,0.532428356,0.461538462,0.399698341,0.562594268,0.39668175,0.472096531,0.533936652,0.378582202,0.550527903,0.475113122,0.417797888,0.583710407,0.417797888,0.494720965,0.552036199,0.407239819,0.591251885,0.527903469,0.491704374,0.663650075,0.484162896,0.54147813,0.571644042,0.411764706,0.574660633,0.488687783,0.432880845,0.571644042,0.514328808,0.948717949,0.906485671,0.437405732,0.55505279,0.505279035,0.446455505,0.604826546,0.423831071,0.514328808,0.549019608,0.398190045,0.574660633,0.485671192,0.453996983,0.612368024,0.447963801,0.553544495,0.607843137,0.472096531,0.656108597,0.571644042,0.529411765,0.660633484,0.461538462,0.529411765,0.536953243,0.37254902,0.509803922,0.441930618,0.389140271,0.542986425,0.369532428,0.449472097,0.511312217,0.355957768,0.511312217,0.450980392,0.390648567,0.550527903,0.393665158,0.463046757,0.529411765,0.375565611,0.529411765,0.475113122,0.414781297,0.564102564,0.417797888,0.479638009,0.547511312,0.401206637,0.552036199,0.502262443,0.455505279,0.61387632,0.488687783,0.562594268,0.618401207,0.446455505,0.568627451,0.505279035,0.432880845,0.57918552,0.426847662,0.475113122,0.60331825,0.814479638,0.95173454,0.562594268,0.438914027,0.574660633,0.446455505,0.508295626,0.562594268,0.41025641,0.556561086,0.490196078,0.440422323,0.588235294,0.438914027,0.514328808,0.57918552,0.447963801,0.610859729,0.561085973,0.523378582,0.668174962,0.526395173,0.570135747,0.601809955,0.438914027,0.54147813,0.472096531,0.405731523,0.53092006,0.39668175,0.449472097,0.502262443,0.380090498,0.502262443,0.464555053,0.428355958,0.443438914,0.500754148,0.452488688,0.438914027,0.509803922,0.428355958,0.4826546,0.497737557,0.429864253,0.515837104,0.470588235,0.457013575,0.53092006,0.449472097,0.500754148,0.512820513,0.449472097,0.539969834,0.509803922,0.505279035,0.585218703,0.535444947,0.561085973,0.558069382,0.470588235,0.53092006,0.488687783,0.46907994,0.526395173,0.443438914,0.570135747,0.935143288,0.865761689,0.57918552,0.49321267,0.481146305,0.553544495,0.475113122,0.508295626,0.518853695,0.461538462,0.533936652,0.49321267,0.481146305,0.55505279,0.481146305,0.536953243,0.56561086,0.514328808,0.61387632,0.57918552,0.576168929,0.639517345,0.553544495,0.576168929,0.553544495,0.461538462,0.523378582,0.461538462,0.443438914,0.508295626,0.422322775,0.46907994,0.484162896,0.41025641,0.502262443,0.446455505,0.437405732,0.505279035,0.425339367,0.4826546,0.49321267,0.422322775,0.511312217,0.457013575,0.446455505,0.514328808,0.426847662,0.490196078,0.497737557,0.431372549,0.521870287,0.472096531,0.460030166,0.533936652,0.452488688,0.509803922,0.536953243,0.4826546,0.583710407,0.549019608,0.53092006,0.576168929,0.470588235,0.502262443,0.515837104,0.447963801,0.5173454,0.464555053,0.518853695,0.938159879,0.892911011,0.564102564,0.520361991,0.466063348,0.53092006,0.500754148,0.481146305,0.514328808,0.496229261,0.461538462,0.533936652,0.479638009,0.499245852,0.544494721,0.484162896,0.556561086,0.558069382,0.533936652,0.619909502,0.574660633,0.592760181,0.615384615,0.521870287,0.550527903,0.503770739,0.441930618,0.500754148,0.431372549,0.447963801,0.487179487,0.414781297,0.476621418,0.568627451,0.271493213,0.463046757,0.701357466,0.177978884,0.719457014,0.500754148,0.30015083,0.826546003,0.291101056,0.53092006,0.730015083,0.208144796,0.745098039,0.511312217,0.315233786,0.83107089,0.288084465,0.546003017,0.719457014,0.209653092,0.78280543,0.500754148,0.374057315,0.885369532,0.331825038,0.609351433,0.716440422,0.196078431,0.7586727,0.438914027,0.318250377,0.797888386,0.205128205,0.714932127,0.998491704,0.490196078,0.702865762,0.371040724,0.28959276,0.788838612,0.197586727,0.550527903,0.644042232,0.173453997,0.760180995,0.408748115,0.342383107,0.815987934,0.233785822,0.621417798,0.692307692,0.248868778,0.85520362,0.479638009,0.450980392,0.882352941,0.26546003,0.644042232,0.636500754,0.170437406,0.770739065,0.330316742,0.328808446,0.7586727,0.123680241,0.672699849,0.453996983,0.196078431,0.794871795,0.208144796,0.455505279,0.704374057,0.105580694,0.769230769,0.343891403,0.312217195,0.79638009,0.146304676,0.681749623,0.505279035,0.199095023,0.826546003,0.256410256,0.447963801,0.752639517,0.140271493,0.800904977,0.441930618,0.354449472,0.891402715,0.271493213,0.628959276,0.704374057,0.162895928,0.788838612,0.402714932,0.312217195,0.815987934,0.170437406,0.736048265,1,0.520361991,0.716440422,0.355957768,0.292609351,0.802413273,0.19306184,0.55505279,0.653092006,0.162895928,0.769230769,0.419306184,0.342383107,0.826546003,0.230769231,0.610859729,0.702865762,0.242835596,0.865761689,0.497737557,0.446455505,0.906485671,0.271493213,0.645550528,0.666666667,0.170437406,0.776772247,0.355957768,0.315233786,0.775263952,0.149321267,0.666666667,00.596625767,0.467791411,0.619631902,0.392638037,0.584355828,0.430981595,0.506134969,0.518404908,0.414110429,0.590490798,0.389570552,0.587423313,0.441717791,0.515337423,0.533742331,0.430981595,0.607361963,0.394171779,0.615030675,0.420245399,0.539877301,0.512269939,0.444785276,0.590490798,0.389570552,0.607361963,0.420245399,0.54601227,0.512269939,0.449386503,0.598159509,0.392638037,0.610429448,0.426380368,0.544478528,0.51993865,0.438650307,0.608895706,0.411042945,0.622699387,0.464723926,0.555214724,0.555214724,0.447852761,0.61196319,0.391104294,0.590490798,0.438650307,0.509202454,0.533742331,0.424846626,0.608895706,0.486196319,0.926380368,0.68404908,0.483128834,0.587423313,0.421779141,0.590490798,0.375766871,0.582822086,0.443251534,0.510736196,0.547546012,0.430981595,0.625766871,0.417177914,0.624233129,0.489263804,0.552147239,0.595092025,0.486196319,0.679447853,0.478527607,0.674846626,0.541411043,0.588957055,0.613496933,0.464723926,0.625766871,0.395705521,0.579754601,0.438650307,0.489263804,0.529141104,0.409509202,0.598159509,0.38803681,0.581288344,0.45398773,0.5,0.550613497,0.418711656,0.610429448,0.403374233,0.585889571,0.460122699,0.498466258,0.547546012,0.418711656,0.604294479,0.397239264,0.581288344,0.455521472,0.496932515,0.549079755,0.423312883,0.61196319,0.395705521,0.590490798,0.461656442,0.503067485,0.555214724,0.423312883,0.615030675,0.403374233,0.596625767,0.470858896,0.510736196,0.564417178,0.430981595,0.634969325,0.43404908,0.624233129,0.509202454,0.542944785,0.585889571,0.444785276,0.622699387,0.406441718,0.590490798,0.475460123,0.507668712,0.567484663,0.429447853,0.654907975,0.604294479,1,0.564417178,0.516871166,0.596625767,0.418711656,0.61196319,0.406441718,0.587423313,0.476993865,0.506134969,0.579754601,0.444785276,0.645705521,0.441717791,0.628834356,0.527607362,0.556748466,0.625766871,0.495398773,0.699386503,0.501533742,0.674846626,0.562883436,0.579754601,0.630368098,0.461656442,0.633435583,0.40797546,0.575153374,0.460122699,0.478527607,0.552147239,0.406441718,0.604294479,0.398773006,0.57208589,0.470858896,0.492331288,0.562883436,0.415644172,0.613496933,0.406441718,0.579754601,0.478527607,0.484662577,0.562883436,0.411042945,0.604294479,0.398773006,0.56595092,0.467791411,0.483128834,0.559815951,0.40797546,0.608895706,0.406441718,0.567484663,0.47392638,0.481595092,0.567484663,0.411042945,0.613496933,0.412576687,0.575153374,0.481595092,0.489263804,0.573619632,0.415644172,0.622699387,0.429447853,0.605828221,0.512269939,0.518404908,0.604294479,0.435582822,0.63190184,0.411042945,0.575153374,0.478527607,0.483128834,0.570552147,0.40797546,0.61196319,0.464723926,0.81595092,0.86809816,0.498466258,0.602760736,0.423312883,